ID RefHR Location Motion Quality Signal Time
100001 83 1 0 1 "-254.1748 -254.418 -254.1488 -254.4119 -254.1934 -254.4859 -254.5039 -254.4897 -254.1695 -254.0859 -254.2892 -254.2512 -254.1922 -254.2093 -254.2297 -254.2541 -253.9605 -254.2742 -254.2849 -254.2914 -254.3265 -254.3352 -254.0812 -254.0818 -254.1153 -254.4059 -254.1589 -254.4433 -254.467 -254.4565 -254.4085 -254.3856 -254.3372 -254.0048 -254.3787 -254.3593 -254.279 -254.2975 -254.3131 -254.0412 -254.3808 -254.3589 -254.3656 -254.3664 -254.3901 -254.4059 -254.4223 -254.1792 -254.1934 -254.4775 -254.4686 -254.4267 -254.0974 -254.0487 -254.2561 -253.9115 -254.1756 -254.2042 -254.2521 -254.2437 -254.26 -254.3854 -254.3173 -254.3331 -254.3412 -254.1397 -254.1461 -254.4034 -254.4026 -254.4103 -254.1376 -254.1695 -254.4399 -254.4377 -254.4075 -254.0091 -254.2593 -254.2068 -254.2393 -254.2618 -254.0192 -254.0229 -254.0383 -254.0643 -254.1058 -254.1539 -254.1656 -254.4462 -254.4761 -254.2245 -254.5075 -254.5083 -254.5725 -254.6018 -254.5014 -254.2502 -254.419 -254.4036 -254.3595 -254.3277 -254.0381 -254.0716 -254.0889 -254.3915 -254.4279 -254.4427 -254.4385 -254.4897 -254.4824 -254.5026 -254.5407 -254.3011 -254.6157 -254.6408 -254.6165 -254.5965 -254.6216 -254.5506 -254.5128 -254.4549 -254.3783 -254.3781 -254.1039 -254.1238 -254.4524 -254.1427 -254.4205 -254.4336 -254.4328 -254.4725 -254.2439 -254.2857 -254.6141 -254.5621 -254.3342 -254.5656 -254.3696 -254.6665 -254.5455 -254.4852 -254.4354 -254.3909 -254.3591 -253.9983 -254.2914 -254.3244 -254.3445 -254.3769 -254.4012 -254.415 -254.1299 -254.1593 -254.4281 -254.179 -254.178 -254.4763 -254.498 -254.2695 -254.2768 -254.5182 -254.5083 -254.4672 -254.111 -254.0995 -254.3106 -254.32 -254.3463 -254.337 -254.3319 -254.0932 -254.3131 -254.0625 -254.0804 -254.1508 -254.4 -254.1959 -254.4425 -254.4745 -254.4907 -254.2839 -254.2646 -254.4707 -254.4385 -254.4658 -254.2977 -254.2711 -253.918 -254.2356 -254.2744 -254.307 -254.3275 -254.3708 -254.5051 -254.3686 -254.4284 -254.4656 -254.5979 -254.4828 -254.5035 -254.3038 -254.3404 -254.6645 -254.6533 -254.7065 -254.6699 -254.5907 -254.4786 -254.4476 -254.3968 -254.4354 -254.2364 -254.2693 -254.294 -254.2881 -254.5381 -254.5399 -254.5437 -254.5439 -254.589 -254.5623 -254.3731 -254.6111 -254.6337 -254.4265 -254.416 -254.433 -254.606 -254.4992 -254.4946 -254.4336 -254.4036 -254.4085 -254.3654 -254.3974 -254.4117 -254.4051 -254.4282 -254.1395 -254.1238 -254.4063 -254.4385 -254.4591 -254.4792 -254.2654 -254.5462 -254.5514 -254.5672 -254.5443 -254.26 -254.2287 -254.4362 -254.4148 -254.124 -254.3481 -254.3485 -254.3725 -254.3747 -254.3964 -254.1466 -254.6473 -254.5014 -254.5164 -254.4609 -254.2395 -254.4935 -254.5037 -254.5045 -254.5156 -254.5314 -254.5053 -254.1553 -254.3528 -254.3431 -254.0901 -254.0393 -254.2709 -254.2837 -253.9753 -254.2593 -254.3145 -254.3386 -254.3795 -254.4 -254.4354 -254.1918 -254.2066 -254.5014 -254.5026 -254.5146 -254.7404 -254.7572 -254.5344 -254.2723 -254.4294 -254.3812 -254.3465 -254.3265 -254.32 -254.3366 -254.3467" "0 0.033445 0.06689 0.10033 0.13378 0.16722 0.20067 0.23411 0.26756 0.301 0.33445 0.36789 0.40134 0.43478 0.46823 0.50167 0.53512 0.56856 0.60201 0.63545 0.6689 0.70234 0.73579 0.76923 0.80268 0.83612 0.86957 0.90301 0.93645 0.9699 1.0033 1.0368 1.0702 1.1037 1.1371 1.1706 1.204 1.2375 1.2709 1.3043 1.3378 1.3712 1.4047 1.4381 1.4716 1.505 1.5385 1.5719 1.6054 1.6388 1.6722 1.7057 1.7391 1.7726 1.806 1.8395 1.8729 1.9064 1.9398 1.9732 2.0067 2.0401 2.0736 2.107 2.1405 2.1739 2.2074 2.2408 2.2742 2.3077 2.3411 2.3746 2.408 2.4415 2.4749 2.5084 2.5418 2.5753 2.6087 2.6421 2.6756 2.709 2.7425 2.7759 2.8094 2.8428 2.8763 2.9097 2.9431 2.9766 3.01 3.0435 3.0769 3.1104 3.1438 3.1773 3.2107 3.2441 3.2776 3.311 3.3445 3.3779 3.4114 3.4448 3.4783 3.5117 3.5452 3.5786 3.612 3.6455 3.6789 3.7124 3.7458 3.7793 3.8127 3.8462 3.8796 3.913 3.9465 3.9799 4.0134 4.0468 4.0803 4.1137 4.1472 4.1806 4.214 4.2475 4.2809 4.3144 4.3478 4.3813 4.4147 4.4482 4.4816 4.5151 4.5485 4.5819 4.6154 4.6488 4.6823 4.7157 4.7492 4.7826 4.8161 4.8495 4.8829 4.9164 4.9498 4.9833 5.0167 5.0502 5.0836 5.1171 5.1505 5.1839 5.2174 5.2508 5.2843 5.3177 5.3512 5.3846 5.4181 5.4515 5.4849 5.5184 5.5518 5.5853 5.6187 5.6522 5.6856 5.7191 5.7525 5.786 5.8194 5.8528 5.8863 5.9197 5.9532 5.9866 6.0201 6.0535 6.087 6.1204 6.1538 6.1873 6.2207 6.2542 6.2876 6.3211 6.3545 6.388 6.4214 6.4548 6.4883 6.5217 6.5552 6.5886 6.6221 6.6555 6.689 6.7224 6.7559 6.7893 6.8227 6.8562 6.8896 6.9231 6.9565 6.99 7.0234 7.0569 7.0903 7.1237 7.1572 7.1906 7.2241 7.2575 7.291 7.3244 7.3579 7.3913 7.4247 7.4582 7.4916 7.5251 7.5585 7.592 7.6254 7.6589 7.6923 7.7258 7.7592 7.7926 7.8261 7.8595 7.893 7.9264 7.9599 7.9933 8.0268 8.0602 8.0936 8.1271 8.1605 8.194 8.2274 8.2609 8.2943 8.3278 8.3612 8.3946 8.4281 8.4615 8.495 8.5284 8.5619 8.5953 8.6288 8.6622 8.6957 8.7291 8.7625 8.796 8.8294 8.8629 8.8963 8.9298 8.9632 8.9967 9.0301 9.0635 9.097 9.1304 9.1639 9.1973 9.2308 9.2642 9.2977 9.3311 9.3645 9.398 9.4314 9.4649 9.4983 9.5318 9.5652 9.5987 9.6321 9.6656 9.699 9.7324 9.7659 9.7993 9.8328 9.8662 9.8997 9.9331 9.9666 10"
100002 85 1 0 1 "-253.8659 -253.8657 -253.5724 -253.6864 -254.081 -254.1476 -254.1746 -253.931 -254.2667 -254.3188 -254.354 -254.3676 -254.1543 -254.4235 -254.2064 -254.481 -254.4943 -254.4261 -254.2829 -254.1486 -253.7404 -253.6898 -253.9477 -253.9619 -254.0079 -254.0097 -254.1313 -254.4119 -254.2464 -254.3058 -254.3362 -254.3676 -254.3838 -254.1441 -254.4365 -254.2176 -254.4988 -254.4387 -254.4393 -254.4166 -254.3556 -254.2293 -254.1212 -254.059 -253.9688 -253.943 -254.1628 -253.9605 -253.6892 -253.7632 -254.1411 -253.8604 -254.2109 -254.22 -254.235 -254.3957 -254.3516 -254.5059 -254.4909 -254.3348 -254.3629 -254.3435 -254.017 -253.9111 -254.0272 -253.9329 -253.8987 -253.891 -254.2295 -254.2764 -254.1614 -254.2151 -254.28 -254.3007 -254.3386 -254.5621 -254.4091 -254.4369 -254.4741 -254.5269 -254.5528 -254.3712 -254.4122 -254.3581 -254.2975 -254.1646 -254.0316 -254.0158 -254.1794 -254.0337 -253.8022 -254.0938 -254.1256 -254.151 -254.2334 -254.4085 -254.4504 -254.2573 -254.321 -254.3494 -254.3627 -254.4156 -254.5682 -254.5684 -254.3619 -254.2977 -254.1589 -254.066 -254.0192 -254.1427 -254.1948 -254.0324 -254.0696 -254.2835 -254.3052 -254.3285 -254.3581 -254.3903 -253.9698 -253.9818 -253.9918 -254.434 -254.2638 -254.2729 -254.0452 -254.0391 -253.9204 -254.059 -253.966 -253.8535 -253.7921 -253.5435 -254.175 -254.2358 -254.0649 -254.0848 -254.1313 -254.1323 -254.1606 -254.1833 -254.2099 -254.2553 -254.0304 -254.3648 -254.3562 -254.3783 -254.4867 -254.417 -254.1721 -253.9999 -253.8877 -253.8 -253.7815 -253.7758 -253.9062 -254.0355 -254.0923 -254.1291 -254.1762 -254.3868 -254.2255 -254.4577 -254.4555 -254.3102 -254.3208 -254.3664 -254.1606 -254.2101 -254.2881 -254.1447 -253.98 -253.6102 -253.8808 -253.8446 -253.8792 -254.0481 -254.1395 -254.2314 -254.2539 -254.2697 -254.308 -254.519 -254.3544 -254.3907 -254.4441 -254.1955 -254.4798 -254.4899 -254.109 -254.1149 -254.2581 -254.1307 -254.0448 -253.9371 -253.872 -253.9019 -253.9465 -254.0141 -254.0387 -253.7748 -254.1013 -254.1457 -254.3883 -254.4016 -254.415 -254.433 -254.4363 -254.4595 -254.3718 -254.174 -254.1602 -254.3198 -254.2034 -254.0834 -253.9987 -253.9231 -253.9211 -254.1541 -254.1149 -253.9032 -254.2472 -253.9875 -254.2632 -254.0182 -254.3145 -254.3269 -254.3489 -254.5405 -254.55 -254.5538 -254.4905 -254.3084 -254.2464 -254.1058 -254.0223 -253.9089 -253.8588 -253.4402 -254.0501 -254.0036 -254.1055 -254.1782 -254.3799 -254.4071 -254.4385 -254.3289 -254.3566 -254.3797 -254.4085 -254.4261 -254.3824 -254.384 -254.398 -254.5128 -254.2001 -254.1214 -254.1867 -253.8735 -253.8411 -253.9213 -253.5465 -253.5971 -253.6071 -254.0036 -254.0948 -254.167 -254.1342 -254.1664 -254.2228 -254.2397 -254.247 -254.2737 -254.3048 -254.3368 -254.3575 -254.1942 -254.0856 -254.2571 -253.8975 -253.9133 -254.2074 -254.2133 -254.2139 -254.1366 -254.1196 -254.1277 -254.2196 -254.2251 -254.2687 -254.4861 -254.4879 -254.3631 -254.3676 -254.3793 -254.4265 -254.4205 -254.3585 -254.3759 -254.1013 -254.0804" "0 0.033445 0.06689 0.10033 0.13378 0.16722 0.20067 0.23411 0.26756 0.301 0.33445 0.36789 0.40134 0.43478 0.46823 0.50167 0.53512 0.56856 0.60201 0.63545 0.6689 0.70234 0.73579 0.76923 0.80268 0.83612 0.86957 0.90301 0.93645 0.9699 1.0033 1.0368 1.0702 1.1037 1.1371 1.1706 1.204 1.2375 1.2709 1.3043 1.3378 1.3712 1.4047 1.4381 1.4716 1.505 1.5385 1.5719 1.6054 1.6388 1.6722 1.7057 1.7391 1.7726 1.806 1.8395 1.8729 1.9064 1.9398 1.9732 2.0067 2.0401 2.0736 2.107 2.1405 2.1739 2.2074 2.2408 2.2742 2.3077 2.3411 2.3746 2.408 2.4415 2.4749 2.5084 2.5418 2.5753 2.6087 2.6421 2.6756 2.709 2.7425 2.7759 2.8094 2.8428 2.8763 2.9097 2.9431 2.9766 3.01 3.0435 3.0769 3.1104 3.1438 3.1773 3.2107 3.2441 3.2776 3.311 3.3445 3.3779 3.4114 3.4448 3.4783 3.5117 3.5452 3.5786 3.612 3.6455 3.6789 3.7124 3.7458 3.7793 3.8127 3.8462 3.8796 3.913 3.9465 3.9799 4.0134 4.0468 4.0803 4.1137 4.1472 4.1806 4.214 4.2475 4.2809 4.3144 4.3478 4.3813 4.4147 4.4482 4.4816 4.5151 4.5485 4.5819 4.6154 4.6488 4.6823 4.7157 4.7492 4.7826 4.8161 4.8495 4.8829 4.9164 4.9498 4.9833 5.0167 5.0502 5.0836 5.1171 5.1505 5.1839 5.2174 5.2508 5.2843 5.3177 5.3512 5.3846 5.4181 5.4515 5.4849 5.5184 5.5518 5.5853 5.6187 5.6522 5.6856 5.7191 5.7525 5.786 5.8194 5.8528 5.8863 5.9197 5.9532 5.9866 6.0201 6.0535 6.087 6.1204 6.1538 6.1873 6.2207 6.2542 6.2876 6.3211 6.3545 6.388 6.4214 6.4548 6.4883 6.5217 6.5552 6.5886 6.6221 6.6555 6.689 6.7224 6.7559 6.7893 6.8227 6.8562 6.8896 6.9231 6.9565 6.99 7.0234 7.0569 7.0903 7.1237 7.1572 7.1906 7.2241 7.2575 7.291 7.3244 7.3579 7.3913 7.4247 7.4582 7.4916 7.5251 7.5585 7.592 7.6254 7.6589 7.6923 7.7258 7.7592 7.7926 7.8261 7.8595 7.893 7.9264 7.9599 7.9933 8.0268 8.0602 8.0936 8.1271 8.1605 8.194 8.2274 8.2609 8.2943 8.3278 8.3612 8.3946 8.4281 8.4615 8.495 8.5284 8.5619 8.5953 8.6288 8.6622 8.6957 8.7291 8.7625 8.796 8.8294 8.8629 8.8963 8.9298 8.9632 8.9967 9.0301 9.0635 9.097 9.1304 9.1639 9.1973 9.2308 9.2642 9.2977 9.3311 9.3645 9.398 9.4314 9.4649 9.4983 9.5318 9.5652 9.5987 9.6321 9.6656 9.699 9.7324 9.7659 9.7993 9.8328 9.8662 9.8997 9.9331 9.9666 10"
100003 81 1 0 1 "-253.8138 -253.6018 -253.6367 -253.6815 -254.0304 -254.0542 -253.7141 -253.116 -253.7302 -253.611 -253.4949 -253.0712 -253.079 -253.0671 -253.1373 -253.5268 -253.537 -252.7419 -252.7817 -253.3731 -253.4117 -253.4784 -253.8432 -253.8855 -253.6026 -253.7033 -253.7178 -253.7377 -253.6964 -253.8666 -253.3635 -253.6087 -253.4907 -253.004 -253.0462 -253.4423 -253.4496 -253.1815 -253.1383 -253.1864 -253.1809 -253.2351 -253.2613 -253.3481 -253.4259 -253.469 -253.8513 -253.5441 -253.5855 -253.6456 -253.6193 -253.4566 -253.276 -253.165 -253.0661 -252.9919 -252.9721 -252.9958 -253.4443 -253.071 -253.1062 -253.1625 -253.2138 -253.2668 -253.6892 -253.4092 -252.9821 -253.8234 -253.5751 -253.6075 -253.6532 -253.689 -253.7308 -253.2134 -253.4876 -253.3867 -253.2556 -253.1789 -252.6406 -252.6906 -253.6094 -253.5763 -253.2672 -253.3087 -253.4315 -253.766 -253.4217 -253.4655 -253.5233 -253.9028 -253.6852 -254.0215 -254.0253 -254.0566 -254.0871 -253.7776 -253.5131 -253.4164 -252.6133 -253.0995 -252.5444 -253.0876 -253.1025 -253.1426 -253.4988 -253.5441 -253.5826 -253.5894 -253.6397 -253.6628 -253.7088 -253.5045 -253.5286 -253.9326 -253.9418 -253.9831 -253.9711 -253.6165 -253.4831 -253.4186 -253.5155 -253.4394 -253.3822 -253.0163 -253.5706 -253.5753 -253.2811 -252.8451 -253.4115 -253.8222 -253.5372 -253.8922 -253.6179 -253.6383 -253.6556 -254.0052 -253.7167 -254.1307 -254.0997 -253.8794 -253.3827 -253.2746 -252.58 -252.5014 -252.9751 -253.0261 -253.037 -253.0788 -252.6047 -253.1588 -253.2187 -253.6346 -253.3067 -253.3573 -253.3816 -253.4649 -253.4792 -253.5451 -253.5782 -253.6367 -253.6817 -253.6735 -253.54 -253.3872 -253.2787 -253.1613 -253.1167 -253.0917 -253.1165 -253.5292 -253.5015 -253.1557 -253.5857 -253.3461 -253.699 -253.3823 -253.4043 -253.4625 -253.5082 -253.5694 -253.9056 -253.9412 -253.733 -253.7556 -253.259 -253.689 -253.5486 -253.0386 -252.987 -253.3344 -253.344 -253.3475 -253.0587 -253.0929 -253.1036 -253.1672 -253.5932 -253.2977 -253.3281 -253.4051 -253.4655 -253.4727 -253.5525 -253.5869 -253.6894 -253.7017 -253.655 -253.476 -253.3551 -253.5963 -253.1371 -253.1424 -253.1609 -253.1852 -253.5727 -253.612 -253.6059 -253.5847 -253.6413 -253.6697 -253.7178 -253.4604 -253.5008 -253.9103 -253.6652 -254.0231 -253.723 -254.0448 -253.6204 -253.5249 -253.3598 -253.2566 -253.4825 -253.457 -253.0898 -252.638 -253.5145 -253.4817 -253.506 -253.2102 -253.25 -253.6497 -253.3722 -253.7365 -253.4917 -253.8486 -253.5372 -253.5671 -253.6173 -253.1895 -253.0567 -253.3688 -253.256 -253.13 -253.4151 -253.3775 -252.9956 -253.0354 -253.4686 -253.4472 -253.2474 -253.2128 -253.286 -253.2825 -253.3385 -253.7082 -253.6966 -253.7387 -253.4694 -253.5525 -253.6303 -253.9345 -253.4106 -253.3251 -253.1883 -253.086 -253.0149 -252.4502 -252.4708 -252.4829 -253.0923 -253.4927 -253.5231 -253.5084 -253.5468 -252.7674 -252.8394 -253.4513 -253.4915 -253.5612 -253.5975 -253.6361 -253.9774 -253.6413 -253.8645 -253.3653 -253.266 -252.6429 -253.125 -253.4668" "0 0.033445 0.06689 0.10033 0.13378 0.16722 0.20067 0.23411 0.26756 0.301 0.33445 0.36789 0.40134 0.43478 0.46823 0.50167 0.53512 0.56856 0.60201 0.63545 0.6689 0.70234 0.73579 0.76923 0.80268 0.83612 0.86957 0.90301 0.93645 0.9699 1.0033 1.0368 1.0702 1.1037 1.1371 1.1706 1.204 1.2375 1.2709 1.3043 1.3378 1.3712 1.4047 1.4381 1.4716 1.505 1.5385 1.5719 1.6054 1.6388 1.6722 1.7057 1.7391 1.7726 1.806 1.8395 1.8729 1.9064 1.9398 1.9732 2.0067 2.0401 2.0736 2.107 2.1405 2.1739 2.2074 2.2408 2.2742 2.3077 2.3411 2.3746 2.408 2.4415 2.4749 2.5084 2.5418 2.5753 2.6087 2.6421 2.6756 2.709 2.7425 2.7759 2.8094 2.8428 2.8763 2.9097 2.9431 2.9766 3.01 3.0435 3.0769 3.1104 3.1438 3.1773 3.2107 3.2441 3.2776 3.311 3.3445 3.3779 3.4114 3.4448 3.4783 3.5117 3.5452 3.5786 3.612 3.6455 3.6789 3.7124 3.7458 3.7793 3.8127 3.8462 3.8796 3.913 3.9465 3.9799 4.0134 4.0468 4.0803 4.1137 4.1472 4.1806 4.214 4.2475 4.2809 4.3144 4.3478 4.3813 4.4147 4.4482 4.4816 4.5151 4.5485 4.5819 4.6154 4.6488 4.6823 4.7157 4.7492 4.7826 4.8161 4.8495 4.8829 4.9164 4.9498 4.9833 5.0167 5.0502 5.0836 5.1171 5.1505 5.1839 5.2174 5.2508 5.2843 5.3177 5.3512 5.3846 5.4181 5.4515 5.4849 5.5184 5.5518 5.5853 5.6187 5.6522 5.6856 5.7191 5.7525 5.786 5.8194 5.8528 5.8863 5.9197 5.9532 5.9866 6.0201 6.0535 6.087 6.1204 6.1538 6.1873 6.2207 6.2542 6.2876 6.3211 6.3545 6.388 6.4214 6.4548 6.4883 6.5217 6.5552 6.5886 6.6221 6.6555 6.689 6.7224 6.7559 6.7893 6.8227 6.8562 6.8896 6.9231 6.9565 6.99 7.0234 7.0569 7.0903 7.1237 7.1572 7.1906 7.2241 7.2575 7.291 7.3244 7.3579 7.3913 7.4247 7.4582 7.4916 7.5251 7.5585 7.592 7.6254 7.6589 7.6923 7.7258 7.7592 7.7926 7.8261 7.8595 7.893 7.9264 7.9599 7.9933 8.0268 8.0602 8.0936 8.1271 8.1605 8.194 8.2274 8.2609 8.2943 8.3278 8.3612 8.3946 8.4281 8.4615 8.495 8.5284 8.5619 8.5953 8.6288 8.6622 8.6957 8.7291 8.7625 8.796 8.8294 8.8629 8.8963 8.9298 8.9632 8.9967 9.0301 9.0635 9.097 9.1304 9.1639 9.1973 9.2308 9.2642 9.2977 9.3311 9.3645 9.398 9.4314 9.4649 9.4983 9.5318 9.5652 9.5987 9.6321 9.6656 9.699 9.7324 9.7659 9.7993 9.8328 9.8662 9.8997 9.9331 9.9666 10"
100004 85 1 8 0 "-229.7069 -237.12 -241.2355 -245.0311 -241.3068 -237.1365 -246.0022 -250.8348 -250.2987 -240.5083 -228.9636 -213.8305 -180.8013 -178.205 -168.2279 -179.6892 -195.0942 -211.3276 -227.5818 -253.5939 -255.0001 -254.0956 -246.5278 -234.7642 -204.1053 -195.4639 -192.4347 -201.6292 -212.5438 -236.28 -254.937 -254.9906 -252.5479 -245.8219 -233.089 -205.287 -209.7091 -212.3802 -215.0332 -226.1606 -246.2616 -255.0001 -255.0001 -255.0001 -254.2551 -250.0368 -230.9788 -214.1621 -204.03 -211.2794 -222.2926 -240.6152 -255.0001 -255.0001 -254.9997 -253.7222 -247.9998 -227.5766 -216.6724 -207.0934 -215.3399 -226.8433 -252.205 -255.0001 -254.9562 -253.0747 -249.265 -239.0246 -213.7379 -203.6079 -197.246 -205.2906 -212.9506 -241.9213 -254.9909 -254.9999 -253.0653 -248.0075 -232.6785 -212.6335 -200.1714 -195.8048 -214.1477 -244.9864 -251.4695 -249.0649 -239.4135 -212.4459 -192.4616 -188.5025 -193.4987 -201.0342 -208.4748 -217.7823 -227.6953 -235.2944 -245.8333 -250.773 -253.8228 -254.735 -254.9955 -254.8809 -253.62 -251.4766 -248.7886 -249.2124 -249.4916 -249.9802 -248.6376 -248.2695 -247.5567 -246.9395 -248.4244 -250.5339 -251.0704 -245.2603 -236.3429 -228.9346 -229.1871 -235.4809 -242.0666 -245.0439 -245.0569 -245.7052 -243.7415 -237.3885 -224.5461 -209.4541 -197.6101 -201.2903 -207.9202 -207.8508 -207.9749 -205.4785 -171.4396 -116.4677 -93.768 -91.4479 -116.1744 -125.5662 -133.7605 -137.913 -138.4837 -140.8872 -142.2979 -143.7457 -146.7075 -157.2617 -170.762 -212.4476 -247.1806 -249.074 -250.5074 -254.1214 -254.5079 -254.8953 -254.9233 -254.9334 -253.6136 -252.3711 -252.2551 -250.7764 -251.9137 -252.5224 -252.0009 -253.9418 -253.9599 -253.4131 -250.7446 -247.3509 -242.6971 -235.6025 -225.5297 -221.2206 -228.6373 -235.2831 -243.8355 -246.3927 -250.2442 -250.4707 -252.1194 -248.0802 -237.4033 -219.2557 -207.4892 -203.5509 -213.4094 -218.1526 -215.9977 -218.2078 -219.709 -220.6392 -213.3227 -205.297 -196.6938 -194.1878 -203.118 -203.2504 -203.9405 -205.066 -214.5014 -223.3253 -235.0864 -242.0167 -245.7135 -251.3424 -253.6312 -254.6485 -254.9804 -254.9838 -254.4421 -252.8593 -251.1449 -248.5676 -248.3139 -247.9062 -248.1093 -248.6878 -248.5203 -248.3534 -247.7461 -246.5408 -244.9166 -243.5712 -242.8826 -240.7692 -235.3716 -230.665 -231.6703 -232.5321 -238.5905 -245.9943 -250.1078 -251.092 -246.1833 -234.8399 -216.0461 -196.3054 -191.6315 -201.3028 -208.0685 -208.2951 -213.6162 -220.4086 -223.473 -230.5579 -234.6732 -235.9745 -233.3468 -220.669 -225.3852 -221.6293 -222.0838 -219.9005 -223.6452 -228.22 -241.1436 -246.9217 -250.514 -252.6595 -253.5535 -252.6429 -252.1931 -251.4666 -250.6113 -248.6406 -249.613 -249.8408 -248.8067 -249.7496 -249.0077 -247.4602 -242.8288 -241.4423 -237.7449 -234.6215 -228.1591 -223.8402 -224.7485 -235.35 -244.5549 -248.0169 -248.8264 -242.8565 -232.9303 -221.9686 -222.6713 -229.0586 -233.6498 -234.5734 -234.0604 -236.1926 -237.4001 -237.9042 -235.1807 -228.7885 -225.4477 -220.3849 -213.341 -213.655" "0 0.033445 0.06689 0.10033 0.13378 0.16722 0.20067 0.23411 0.26756 0.301 0.33445 0.36789 0.40134 0.43478 0.46823 0.50167 0.53512 0.56856 0.60201 0.63545 0.6689 0.70234 0.73579 0.76923 0.80268 0.83612 0.86957 0.90301 0.93645 0.9699 1.0033 1.0368 1.0702 1.1037 1.1371 1.1706 1.204 1.2375 1.2709 1.3043 1.3378 1.3712 1.4047 1.4381 1.4716 1.505 1.5385 1.5719 1.6054 1.6388 1.6722 1.7057 1.7391 1.7726 1.806 1.8395 1.8729 1.9064 1.9398 1.9732 2.0067 2.0401 2.0736 2.107 2.1405 2.1739 2.2074 2.2408 2.2742 2.3077 2.3411 2.3746 2.408 2.4415 2.4749 2.5084 2.5418 2.5753 2.6087 2.6421 2.6756 2.709 2.7425 2.7759 2.8094 2.8428 2.8763 2.9097 2.9431 2.9766 3.01 3.0435 3.0769 3.1104 3.1438 3.1773 3.2107 3.2441 3.2776 3.311 3.3445 3.3779 3.4114 3.4448 3.4783 3.5117 3.5452 3.5786 3.612 3.6455 3.6789 3.7124 3.7458 3.7793 3.8127 3.8462 3.8796 3.913 3.9465 3.9799 4.0134 4.0468 4.0803 4.1137 4.1472 4.1806 4.214 4.2475 4.2809 4.3144 4.3478 4.3813 4.4147 4.4482 4.4816 4.5151 4.5485 4.5819 4.6154 4.6488 4.6823 4.7157 4.7492 4.7826 4.8161 4.8495 4.8829 4.9164 4.9498 4.9833 5.0167 5.0502 5.0836 5.1171 5.1505 5.1839 5.2174 5.2508 5.2843 5.3177 5.3512 5.3846 5.4181 5.4515 5.4849 5.5184 5.5518 5.5853 5.6187 5.6522 5.6856 5.7191 5.7525 5.786 5.8194 5.8528 5.8863 5.9197 5.9532 5.9866 6.0201 6.0535 6.087 6.1204 6.1538 6.1873 6.2207 6.2542 6.2876 6.3211 6.3545 6.388 6.4214 6.4548 6.4883 6.5217 6.5552 6.5886 6.6221 6.6555 6.689 6.7224 6.7559 6.7893 6.8227 6.8562 6.8896 6.9231 6.9565 6.99 7.0234 7.0569 7.0903 7.1237 7.1572 7.1906 7.2241 7.2575 7.291 7.3244 7.3579 7.3913 7.4247 7.4582 7.4916 7.5251 7.5585 7.592 7.6254 7.6589 7.6923 7.7258 7.7592 7.7926 7.8261 7.8595 7.893 7.9264 7.9599 7.9933 8.0268 8.0602 8.0936 8.1271 8.1605 8.194 8.2274 8.2609 8.2943 8.3278 8.3612 8.3946 8.4281 8.4615 8.495 8.5284 8.5619 8.5953 8.6288 8.6622 8.6957 8.7291 8.7625 8.796 8.8294 8.8629 8.8963 8.9298 8.9632 8.9967 9.0301 9.0635 9.097 9.1304 9.1639 9.1973 9.2308 9.2642 9.2977 9.3311 9.3645 9.398 9.4314 9.4649 9.4983 9.5318 9.5652 9.5987 9.6321 9.6656 9.699 9.7324 9.7659 9.7993 9.8328 9.8662 9.8997 9.9331 9.9666 10"
101001 67 1 0 1 "-254.4488 -254.4721 -254.4591 -254.4423 -254.4209 -254.4441 -254.4389 -254.4616 -254.4865 -254.5682 -254.5603 -254.6204 -254.6301 -254.6287 -254.6173 -254.6135 -254.6078 -254.6256 -254.6271 -254.6224 -254.6329 -254.6169 -254.5915 -254.498 -254.398 -254.3315 -254.2541 -254.1857 -254.2267 -254.2555 -254.3546 -254.3733 -254.4041 -254.4421 -254.4699 -254.4939 -254.5211 -254.55 -254.5761 -254.5991 -254.6295 -254.676 -254.6944 -254.7142 -254.7245 -254.7489 -254.7657 -254.7719 -254.7016 -254.6539 -254.5866 -254.485 -254.4154 -254.371 -254.337 -254.3202 -254.3181 -254.449 -254.5346 -254.5387 -254.548 -254.5354 -254.5718 -254.6151 -254.6438 -254.6673 -254.7041 -254.7289 -254.7564 -254.7764 -254.7919 -254.7657 -254.7699 -254.7685 -254.7578 -254.6293 -254.5573 -254.4563 -254.3959 -254.2962 -254.2709 -254.3544 -254.4275 -254.432 -254.4842 -254.4996 -254.5253 -254.5354 -254.5585 -254.6309 -254.6153 -254.6606 -254.6853 -254.7275 -254.7495 -254.7964 -254.7945 -254.8002 -254.782 -254.7618 -254.7604 -254.7582 -254.7061 -254.6319 -254.5205 -254.4674 -254.3528 -254.3356 -254.3161 -254.3331 -254.5132 -254.5419 -254.5405 -254.534 -254.5811 -254.5854 -254.5836 -254.6196 -254.6141 -254.6293 -254.6353 -254.6649 -254.6913 -254.7144 -254.7204 -254.7372 -254.743 -254.7538 -254.7295 -254.5903 -254.5344 -254.4371 -254.3242 -254.2557 -254.2093 -254.2883 -254.3945 -254.3998 -254.3897 -254.4081 -254.4192 -254.4605 -254.4731 -254.5239 -254.5846 -254.6258 -254.6485 -254.6677 -254.6834 -254.7111 -254.7426 -254.7566 -254.7459 -254.7416 -254.7204 -254.5886 -254.4923 -254.4314 -254.3327 -254.2598 -254.2431 -254.3015 -254.3467 -254.3953 -254.4247 -254.4666 -254.463 -254.5059 -254.5413 -254.5642 -254.5973 -254.6275 -254.6642 -254.6964 -254.7251 -254.7443 -254.7566 -254.7643 -254.7332 -254.7643 -254.7251 -254.7503 -254.6448 -254.5935 -254.4796 -254.381 -254.2993 -254.2614 -254.2182 -254.2715 -254.325 -254.4229 -254.4958 -254.5482 -254.5813 -254.5917 -254.6074 -254.6319 -254.6606 -254.6903 -254.7075 -254.721 -254.7222 -254.7418 -254.7071 -254.7018 -254.7081 -254.7271 -254.7534 -254.7602 -254.6776 -254.6036 -254.5063 -254.4209 -254.3262 -254.2482 -254.2713 -254.2802 -254.3668 -254.4281 -254.4506 -254.4915 -254.5239 -254.5496 -254.568 -254.5905 -254.5996 -254.5937 -254.618 -254.6529 -254.6727 -254.6934 -254.7233 -254.742 -254.7115 -254.7281 -254.7061 -254.6836 -254.601 -254.5124 -254.3929 -254.3826 -254.3285 -254.3072 -254.3951 -254.4476 -254.4893 -254.4767 -254.5099 -254.5439 -254.5615 -254.588 -254.6107 -254.6404 -254.6746 -254.6903 -254.6942 -254.7184 -254.7319 -254.7515 -254.7043 -254.6938 -254.7057 -254.7287 -254.7085 -254.6426 -254.5638 -254.4757 -254.4111 -254.34 -254.2267 -254.2381 -254.263 -254.3169 -254.3074 -254.3528 -254.3583 -254.4282 -254.4229 -254.5105 -254.5522 -254.57 -254.6097 -254.6388 -254.6475 -254.682 -254.7192 -254.7115 -254.6727 -254.6776 -254.6853 -254.7321 -254.7111 -254.661 -254.5668 -254.4842 -254.3591 -254.274 -254.2279 -254.1851" "0 0.033445 0.06689 0.10033 0.13378 0.16722 0.20067 0.23411 0.26756 0.301 0.33445 0.36789 0.40134 0.43478 0.46823 0.50167 0.53512 0.56856 0.60201 0.63545 0.6689 0.70234 0.73579 0.76923 0.80268 0.83612 0.86957 0.90301 0.93645 0.9699 1.0033 1.0368 1.0702 1.1037 1.1371 1.1706 1.204 1.2375 1.2709 1.3043 1.3378 1.3712 1.4047 1.4381 1.4716 1.505 1.5385 1.5719 1.6054 1.6388 1.6722 1.7057 1.7391 1.7726 1.806 1.8395 1.8729 1.9064 1.9398 1.9732 2.0067 2.0401 2.0736 2.107 2.1405 2.1739 2.2074 2.2408 2.2742 2.3077 2.3411 2.3746 2.408 2.4415 2.4749 2.5084 2.5418 2.5753 2.6087 2.6421 2.6756 2.709 2.7425 2.7759 2.8094 2.8428 2.8763 2.9097 2.9431 2.9766 3.01 3.0435 3.0769 3.1104 3.1438 3.1773 3.2107 3.2441 3.2776 3.311 3.3445 3.3779 3.4114 3.4448 3.4783 3.5117 3.5452 3.5786 3.612 3.6455 3.6789 3.7124 3.7458 3.7793 3.8127 3.8462 3.8796 3.913 3.9465 3.9799 4.0134 4.0468 4.0803 4.1137 4.1472 4.1806 4.214 4.2475 4.2809 4.3144 4.3478 4.3813 4.4147 4.4482 4.4816 4.5151 4.5485 4.5819 4.6154 4.6488 4.6823 4.7157 4.7492 4.7826 4.8161 4.8495 4.8829 4.9164 4.9498 4.9833 5.0167 5.0502 5.0836 5.1171 5.1505 5.1839 5.2174 5.2508 5.2843 5.3177 5.3512 5.3846 5.4181 5.4515 5.4849 5.5184 5.5518 5.5853 5.6187 5.6522 5.6856 5.7191 5.7525 5.786 5.8194 5.8528 5.8863 5.9197 5.9532 5.9866 6.0201 6.0535 6.087 6.1204 6.1538 6.1873 6.2207 6.2542 6.2876 6.3211 6.3545 6.388 6.4214 6.4548 6.4883 6.5217 6.5552 6.5886 6.6221 6.6555 6.689 6.7224 6.7559 6.7893 6.8227 6.8562 6.8896 6.9231 6.9565 6.99 7.0234 7.0569 7.0903 7.1237 7.1572 7.1906 7.2241 7.2575 7.291 7.3244 7.3579 7.3913 7.4247 7.4582 7.4916 7.5251 7.5585 7.592 7.6254 7.6589 7.6923 7.7258 7.7592 7.7926 7.8261 7.8595 7.893 7.9264 7.9599 7.9933 8.0268 8.0602 8.0936 8.1271 8.1605 8.194 8.2274 8.2609 8.2943 8.3278 8.3612 8.3946 8.4281 8.4615 8.495 8.5284 8.5619 8.5953 8.6288 8.6622 8.6957 8.7291 8.7625 8.796 8.8294 8.8629 8.8963 8.9298 8.9632 8.9967 9.0301 9.0635 9.097 9.1304 9.1639 9.1973 9.2308 9.2642 9.2977 9.3311 9.3645 9.398 9.4314 9.4649 9.4983 9.5318 9.5652 9.5987 9.6321 9.6656 9.699 9.7324 9.7659 9.7993 9.8328 9.8662 9.8997 9.9331 9.9666 10"
101002 69 1 0 1 "-254.7756 -254.7814 -254.7873 -254.7451 -254.7289 -254.6762 -254.5967 -254.5213 -254.4494 -254.335 -254.278 -254.2535 -254.2918 -254.4322 -254.4636 -254.5018 -254.5243 -254.5603 -254.5816 -254.618 -254.6679 -254.7039 -254.7222 -254.7437 -254.7645 -254.7715 -254.7893 -254.7711 -254.7804 -254.7754 -254.776 -254.7085 -254.6186 -254.5605 -254.4539 -254.3688 -254.2228 -254.2626 -254.341 -254.4004 -254.4138 -254.4389 -254.4686 -254.4958 -254.498 -254.5114 -254.5328 -254.5599 -254.5927 -254.6313 -254.6483 -254.6651 -254.6849 -254.7035 -254.7299 -254.7636 -254.7612 -254.761 -254.619 -254.4693 -254.3119 -254.3086 -254.2301 -254.2705 -254.3741 -254.3962 -254.4454 -254.4838 -254.5099 -254.5385 -254.5676 -254.6111 -254.6428 -254.6841 -254.7131 -254.7404 -254.7554 -254.7247 -254.7168 -254.7206 -254.7247 -254.7497 -254.7723 -254.7103 -254.6505 -254.5696 -254.4852 -254.3676 -254.2969 -254.2271 -254.3139 -254.3493 -254.4577 -254.4913 -254.5061 -254.5205 -254.5441 -254.5747 -254.6008 -254.6281 -254.6456 -254.6756 -254.7061 -254.7263 -254.7477 -254.7683 -254.7534 -254.7544 -254.7689 -254.778 -254.6907 -254.6085 -254.5033 -254.4241 -254.3443 -254.2723 -254.2379 -254.2839 -254.3179 -254.4024 -254.5041 -254.5213 -254.5486 -254.5595 -254.5856 -254.6198 -254.6576 -254.6778 -254.7002 -254.7184 -254.7295 -254.7431 -254.7483 -254.7261 -254.7237 -254.7208 -254.6788 -254.6012 -254.5128 -254.4162 -254.335 -254.2737 -254.3137 -254.356 -254.386 -254.4225 -254.4569 -254.4747 -254.5182 -254.5536 -254.5858 -254.6525 -254.6576 -254.6748 -254.7129 -254.742 -254.7507 -254.7624 -254.7321 -254.7301 -254.7431 -254.7057 -254.6396 -254.5502 -254.4429 -254.3743 -254.3025 -254.2717 -254.353 -254.4115 -254.4852 -254.4654 -254.4913 -254.5492 -254.5749 -254.569 -254.619 -254.645 -254.6568 -254.6996 -254.6956 -254.7087 -254.74 -254.7321 -254.7776 -254.7558 -254.7342 -254.7222 -254.6586 -254.5283 -254.4593 -254.3799 -254.2827 -254.2537 -254.2894 -254.3214 -254.3447 -254.4075 -254.4148 -254.4338 -254.5275 -254.5253 -254.5413 -254.6076 -254.6127 -254.6091 -254.6653 -254.6689 -254.6598 -254.701 -254.6794 -254.7121 -254.6954 -254.6382 -254.4545 -254.3465 -254.2671 -254.167 -254.0623 -254.1524 -254.2237 -254.3033 -254.3591 -254.3961 -254.4109 -254.4229 -254.4427 -254.4814 -254.5114 -254.5688 -254.6052 -254.6208 -254.6562 -254.6788 -254.7063 -254.7299 -254.7174 -254.7289 -254.718 -254.5723 -254.4622 -254.3643 -254.2646 -254.1713 -254.1204 -254.1871 -254.2687 -254.3386 -254.3763 -254.4134 -254.4241 -254.4385 -254.4725 -254.5047 -254.5613 -254.5698 -254.589 -254.6167 -254.6313 -254.6535 -254.6752 -254.6545 -254.6616 -254.6705 -254.6742 -254.6517 -254.4941 -254.3941 -254.266 -254.1344 -254.0184 -254.0775 -254.2036 -254.2535 -254.3799 -254.3749 -254.3631 -254.3615 -254.3927 -254.4464 -254.462 -254.5022 -254.5292 -254.5712 -254.6147 -254.6461 -254.6596 -254.6887 -254.6996 -254.7115 -254.6814 -254.6849 -254.6525 -254.5725 -254.3804 -254.2541 -254.1502 -254.0312 -254.0897 -254.0946" "0 0.033445 0.06689 0.10033 0.13378 0.16722 0.20067 0.23411 0.26756 0.301 0.33445 0.36789 0.40134 0.43478 0.46823 0.50167 0.53512 0.56856 0.60201 0.63545 0.6689 0.70234 0.73579 0.76923 0.80268 0.83612 0.86957 0.90301 0.93645 0.9699 1.0033 1.0368 1.0702 1.1037 1.1371 1.1706 1.204 1.2375 1.2709 1.3043 1.3378 1.3712 1.4047 1.4381 1.4716 1.505 1.5385 1.5719 1.6054 1.6388 1.6722 1.7057 1.7391 1.7726 1.806 1.8395 1.8729 1.9064 1.9398 1.9732 2.0067 2.0401 2.0736 2.107 2.1405 2.1739 2.2074 2.2408 2.2742 2.3077 2.3411 2.3746 2.408 2.4415 2.4749 2.5084 2.5418 2.5753 2.6087 2.6421 2.6756 2.709 2.7425 2.7759 2.8094 2.8428 2.8763 2.9097 2.9431 2.9766 3.01 3.0435 3.0769 3.1104 3.1438 3.1773 3.2107 3.2441 3.2776 3.311 3.3445 3.3779 3.4114 3.4448 3.4783 3.5117 3.5452 3.5786 3.612 3.6455 3.6789 3.7124 3.7458 3.7793 3.8127 3.8462 3.8796 3.913 3.9465 3.9799 4.0134 4.0468 4.0803 4.1137 4.1472 4.1806 4.214 4.2475 4.2809 4.3144 4.3478 4.3813 4.4147 4.4482 4.4816 4.5151 4.5485 4.5819 4.6154 4.6488 4.6823 4.7157 4.7492 4.7826 4.8161 4.8495 4.8829 4.9164 4.9498 4.9833 5.0167 5.0502 5.0836 5.1171 5.1505 5.1839 5.2174 5.2508 5.2843 5.3177 5.3512 5.3846 5.4181 5.4515 5.4849 5.5184 5.5518 5.5853 5.6187 5.6522 5.6856 5.7191 5.7525 5.786 5.8194 5.8528 5.8863 5.9197 5.9532 5.9866 6.0201 6.0535 6.087 6.1204 6.1538 6.1873 6.2207 6.2542 6.2876 6.3211 6.3545 6.388 6.4214 6.4548 6.4883 6.5217 6.5552 6.5886 6.6221 6.6555 6.689 6.7224 6.7559 6.7893 6.8227 6.8562 6.8896 6.9231 6.9565 6.99 7.0234 7.0569 7.0903 7.1237 7.1572 7.1906 7.2241 7.2575 7.291 7.3244 7.3579 7.3913 7.4247 7.4582 7.4916 7.5251 7.5585 7.592 7.6254 7.6589 7.6923 7.7258 7.7592 7.7926 7.8261 7.8595 7.893 7.9264 7.9599 7.9933 8.0268 8.0602 8.0936 8.1271 8.1605 8.194 8.2274 8.2609 8.2943 8.3278 8.3612 8.3946 8.4281 8.4615 8.495 8.5284 8.5619 8.5953 8.6288 8.6622 8.6957 8.7291 8.7625 8.796 8.8294 8.8629 8.8963 8.9298 8.9632 8.9967 9.0301 9.0635 9.097 9.1304 9.1639 9.1973 9.2308 9.2642 9.2977 9.3311 9.3645 9.398 9.4314 9.4649 9.4983 9.5318 9.5652 9.5987 9.6321 9.6656 9.699 9.7324 9.7659 9.7993 9.8328 9.8662 9.8997 9.9331 9.9666 10"
101003 71 1 0 1 "-139.5957 -140.0897 -140.4884 -140.5122 -140.4569 -140.8253 -140.7483 -140.8056 -141.0613 -141.1981 -141.3617 -141.0778 -141.3842 -141.3295 -141.0385 -140.9977 -140.0934 -139.4329 -139.2459 -138.7544 -138.2343 -138.6495 -138.8082 -139.2785 -139.4657 -139.5758 -139.7584 -139.8185 -140.0689 -140.5405 -140.4562 -140.5835 -140.7329 -140.9227 -141.0584 -141.199 -140.7596 -140.6494 -140.8328 -141.0256 -141.2401 -140.7772 -139.0957 -139.0524 -138.5067 -138.2538 -138.8016 -138.5973 -139.1331 -139.4947 -139.5135 -139.5787 -139.9931 -140.0586 -140.1415 -140.7014 -140.7202 -140.8044 -141.1771 -141.1511 -141.0348 -141.0169 -141.0928 -141.1727 -141.2833 -140.7313 -140.4185 -139.9081 -139.4314 -139.1025 -138.5908 -138.5716 -138.5878 -138.8067 -139.2232 -139.5327 -139.4973 -139.7791 -139.9179 -139.8504 -140.2034 -140.4024 -140.3857 -140.5073 -140.7433 -140.7087 -140.9295 -141.1413 -141.1065 -141.3485 -140.436 -140.1022 -139.6315 -139.1512 -138.8432 -138.4295 -138.0886 -138.4339 -138.7201 -139.3364 -139.6063 -139.7936 -139.9857 -140.1532 -140.2308 -140.3578 -140.4564 -140.6203 -140.7677 -140.9521 -141.131 -140.982 -140.9821 -141.1423 -140.9903 -140.9401 -140.5684 -139.6132 -139.2346 -138.8198 -138.2706 -138.2178 -138.5953 -139.1103 -139.6936 -139.7505 -139.9657 -140.3875 -140.395 -140.5022 -140.6099 -140.6748 -140.7898 -140.9276 -141.1332 -141.0099 -141.0312 -141.0642 -140.8775 -140.9001 -141.0108 -141.0016 -140.8946 -138.8919 -138.6917 -138.1641 -137.8539 -138.0123 -138.3936 -139.3541 -139.8446 -140.1001 -140.1703 -140.1953 -140.1097 -140.2991 -140.492 -140.6103 -140.6987 -140.7875 -140.863 -140.9549 -141.3051 -140.7682 -140.7745 -141.021 -141.0088 -141.3263 -141.3012 -140.7287 -139.2028 -138.9965 -138.4658 -138.2118 -138.6679 -139.0481 -139.1814 -139.274 -139.6618 -139.4245 -139.6186 -139.9883 -139.9831 -140.0147 -140.5311 -140.5393 -140.5261 -141.0015 -140.9575 -140.9854 -141.3668 -141.0802 -140.9453 -141.0536 -140.4525 -139.0365 -138.8041 -138.4156 -138.1013 -138.1642 -138.8914 -139.7664 -139.9807 -140.1146 -140.4834 -140.471 -140.4475 -140.7867 -140.8971 -141.3309 -141.0996 -140.8403 -140.8915 -141.0411 -141.1796 -140.9421 -141.0184 -140.9892 -141.1145 -140.2665 -139.8348 -139.2714 -138.7963 -138.405 -138.177 -138.246 -139.0934 -139.437 -139.5966 -139.7108 -139.8408 -139.9971 -140.1049 -140.0814 -140.206 -140.4425 -140.6638 -140.7595 -140.8827 -140.8496 -140.9084 -141.0292 -141.0934 -140.9575 -140.3301 -139.8154 -139.2224 -138.6616 -138.1944 -138.2276 -138.5865 -139.3805 -139.6845 -140.0467 -140.1218 -140.2728 -140.4086 -140.56 -140.7237 -140.8941 -141.1022 -141.0401 -141.013 -140.9915 -140.8321 -140.8309 -140.9315 -141.0486 -140.2342 -139.9091 -139.4888 -139.0366 -138.6327 -138.4299 -138.8292 -139.3768 -139.7257 -139.9535 -140.0989 -140.3425 -140.4668 -140.5574 -140.7752 -140.9326 -140.9643 -140.7751 -140.8824 -141.1044 -141.2598 -140.9934 -141.0056 -141.1268 -141.2303 -140.2353 -139.8938 -139.3191 -138.845 -138.429 -138.0463 -138.4598" "0 0.033445 0.06689 0.10033 0.13378 0.16722 0.20067 0.23411 0.26756 0.301 0.33445 0.36789 0.40134 0.43478 0.46823 0.50167 0.53512 0.56856 0.60201 0.63545 0.6689 0.70234 0.73579 0.76923 0.80268 0.83612 0.86957 0.90301 0.93645 0.9699 1.0033 1.0368 1.0702 1.1037 1.1371 1.1706 1.204 1.2375 1.2709 1.3043 1.3378 1.3712 1.4047 1.4381 1.4716 1.505 1.5385 1.5719 1.6054 1.6388 1.6722 1.7057 1.7391 1.7726 1.806 1.8395 1.8729 1.9064 1.9398 1.9732 2.0067 2.0401 2.0736 2.107 2.1405 2.1739 2.2074 2.2408 2.2742 2.3077 2.3411 2.3746 2.408 2.4415 2.4749 2.5084 2.5418 2.5753 2.6087 2.6421 2.6756 2.709 2.7425 2.7759 2.8094 2.8428 2.8763 2.9097 2.9431 2.9766 3.01 3.0435 3.0769 3.1104 3.1438 3.1773 3.2107 3.2441 3.2776 3.311 3.3445 3.3779 3.4114 3.4448 3.4783 3.5117 3.5452 3.5786 3.612 3.6455 3.6789 3.7124 3.7458 3.7793 3.8127 3.8462 3.8796 3.913 3.9465 3.9799 4.0134 4.0468 4.0803 4.1137 4.1472 4.1806 4.214 4.2475 4.2809 4.3144 4.3478 4.3813 4.4147 4.4482 4.4816 4.5151 4.5485 4.5819 4.6154 4.6488 4.6823 4.7157 4.7492 4.7826 4.8161 4.8495 4.8829 4.9164 4.9498 4.9833 5.0167 5.0502 5.0836 5.1171 5.1505 5.1839 5.2174 5.2508 5.2843 5.3177 5.3512 5.3846 5.4181 5.4515 5.4849 5.5184 5.5518 5.5853 5.6187 5.6522 5.6856 5.7191 5.7525 5.786 5.8194 5.8528 5.8863 5.9197 5.9532 5.9866 6.0201 6.0535 6.087 6.1204 6.1538 6.1873 6.2207 6.2542 6.2876 6.3211 6.3545 6.388 6.4214 6.4548 6.4883 6.5217 6.5552 6.5886 6.6221 6.6555 6.689 6.7224 6.7559 6.7893 6.8227 6.8562 6.8896 6.9231 6.9565 6.99 7.0234 7.0569 7.0903 7.1237 7.1572 7.1906 7.2241 7.2575 7.291 7.3244 7.3579 7.3913 7.4247 7.4582 7.4916 7.5251 7.5585 7.592 7.6254 7.6589 7.6923 7.7258 7.7592 7.7926 7.8261 7.8595 7.893 7.9264 7.9599 7.9933 8.0268 8.0602 8.0936 8.1271 8.1605 8.194 8.2274 8.2609 8.2943 8.3278 8.3612 8.3946 8.4281 8.4615 8.495 8.5284 8.5619 8.5953 8.6288 8.6622 8.6957 8.7291 8.7625 8.796 8.8294 8.8629 8.8963 8.9298 8.9632 8.9967 9.0301 9.0635 9.097 9.1304 9.1639 9.1973 9.2308 9.2642 9.2977 9.3311 9.3645 9.398 9.4314 9.4649 9.4983 9.5318 9.5652 9.5987 9.6321 9.6656 9.699 9.7324 9.7659 9.7993 9.8328 9.8662 9.8997 9.9331 9.9666 10"
101004 67 1 8 0 "-197.1568 -232.6539 -246.9894 -247.6532 -232.3255 -207.6762 -193.8596 -192.4537 -209.3212 -222.8785 -240.809 -249.2877 -253.9483 -254.9727 -253.9268 -252.559 -252.1537 -252.3755 -252.1194 -252.5847 -252.5745 -252.1068 -248.2589 -242.2951 -236.2829 -230.3813 -218.4735 -191.9029 -145.2272 -87.6492 -31.6133 -13.4976 -56.4195 -67.936 -100.0259 -144.8485 -198.9239 -235.6001 -247.9047 -249.6621 -240.452 -222.6632 -206.7744 -203.2786 -214.4064 -224.5476 -232.0739 -243.3532 -252.7811 -252.2335 -254.3684 -253.5841 -253.5055 -252.0837 -251.9412 -250.6055 -249.6741 -246.9449 -242.5529 -229.6348 -208.4044 -180.2957 -132.8258 -88.726 -31.9135 -38.4089 -100.6199 -114.1597 -144.6417 -194.3553 -231.4822 -246.6672 -252.0678 -253.7446 -253.625 -252.4887 -249.4448 -243.2405 -232.3795 -222.5021 -219.1109 -220.1835 -225.6736 -235.0026 -242.5539 -249.3885 -252.7665 -251.2236 -239.222 -229.6328 -225.0774 -228.3828 -224.4678 -246.8144 -253.4682 -253.834 -253.94 -249.1406 -244.7494 -234.3104 -219.3942 -185.9268 -117.1334 -82.6342 -24.5591 -39.7802 -102.3633 -117.9427 -164.0203 -209.9122 -238.0084 -248.4905 -251.7655 -252.5422 -247.8647 -237.5715 -219.7256 -208.4188 -204.046 -214.6767 -224.4596 -232.9621 -239.8308 -246.2931 -251.9254 -254.9995 -255.0001 -255.0001 -255.0001 -254.193 -250.3888 -249.7917 -251.2822 -253.1967 -252.8784 -251.6255 -248.1563 -243.8895 -236.0669 -217.1929 -161.1819 -86.9822 -64.552 -29.1836 -75.4112 -100.9499 -138.7624 -188.0684 -231.6034 -247.7886 -252.4984 -253.3643 -251.303 -245.5704 -237.9946 -233.618 -232.1421 -233.197 -234.1405 -234.5469 -239.5735 -245.0318 -253.3416 -255.0001 -255.0001 -254.8741 -254.148 -252.1149 -248.9703 -250.8177 -250.6903 -249.935 -248.7497 -246.2651 -238.393 -222.0335 -173.7903 -114.3746 -91.3127 -30.9271 -51.0396 -118.5589 -135.9002 -180.9536 -225.2105 -246.1327 -250.9239 -252.0864 -249.0304 -240.2033 -228.6895 -220.9803 -215.2699 -220.1839 -229.8392 -237.2375 -244.1341 -247.1122 -252.346 -255.0001 -255.0001 -255.0001 -254.9181 -254.4605 -252.3462 -250.8283 -253.0198 -254.3765 -251.6835 -247.2753 -235.9679 -210.5774 -180.5348 -130.9688 -71.7888 -42.7569 -60.023 -121.6739 -145.5396 -185.028 -229.3935 -248.8126 -253.1813 -254.6715 -254.9925 -254.827 -253.0733 -247.8518 -237.1454 -220.9929 -214.8404 -223.4681 -235.0125 -243.863 -248.0032 -249.3501 -230.4374 -229.3339 -225.5206 -227.3626 -223.5848 -206.1832 -205.5943 -204.0865 -203.4188 -195.9509 -210.6663 -244.9221 -254.4601 -254.8819 -253.6693 -249.3038 -239.9716 -217.9486 -166.1028 -86.9234 -84.4882 -48.8966 -100.5422 -137.8192 -170.5055 -208.9574 -229.7863 -242.7939 -248.5091 -251.1341 -251.417 -249.0475 -244.9975 -240.2283 -238.6279 -236.32 -235.6674 -236.4048 -239.4942 -244.6986 -246.2551 -248.4261 -250.9147 -253.2934 -255.0001 -255.0001 -255.0001 -255.0001 -254.9943 -255.0001 -255.0001 -254.9989 -254.7081 -250.6372 -240.7288 -220.8061 -198.8508 -149.6868 -99.9587 -63.0605 -50.1746 -102.3529 -147.8076 -188.6977" "0 0.033445 0.06689 0.10033 0.13378 0.16722 0.20067 0.23411 0.26756 0.301 0.33445 0.36789 0.40134 0.43478 0.46823 0.50167 0.53512 0.56856 0.60201 0.63545 0.6689 0.70234 0.73579 0.76923 0.80268 0.83612 0.86957 0.90301 0.93645 0.9699 1.0033 1.0368 1.0702 1.1037 1.1371 1.1706 1.204 1.2375 1.2709 1.3043 1.3378 1.3712 1.4047 1.4381 1.4716 1.505 1.5385 1.5719 1.6054 1.6388 1.6722 1.7057 1.7391 1.7726 1.806 1.8395 1.8729 1.9064 1.9398 1.9732 2.0067 2.0401 2.0736 2.107 2.1405 2.1739 2.2074 2.2408 2.2742 2.3077 2.3411 2.3746 2.408 2.4415 2.4749 2.5084 2.5418 2.5753 2.6087 2.6421 2.6756 2.709 2.7425 2.7759 2.8094 2.8428 2.8763 2.9097 2.9431 2.9766 3.01 3.0435 3.0769 3.1104 3.1438 3.1773 3.2107 3.2441 3.2776 3.311 3.3445 3.3779 3.4114 3.4448 3.4783 3.5117 3.5452 3.5786 3.612 3.6455 3.6789 3.7124 3.7458 3.7793 3.8127 3.8462 3.8796 3.913 3.9465 3.9799 4.0134 4.0468 4.0803 4.1137 4.1472 4.1806 4.214 4.2475 4.2809 4.3144 4.3478 4.3813 4.4147 4.4482 4.4816 4.5151 4.5485 4.5819 4.6154 4.6488 4.6823 4.7157 4.7492 4.7826 4.8161 4.8495 4.8829 4.9164 4.9498 4.9833 5.0167 5.0502 5.0836 5.1171 5.1505 5.1839 5.2174 5.2508 5.2843 5.3177 5.3512 5.3846 5.4181 5.4515 5.4849 5.5184 5.5518 5.5853 5.6187 5.6522 5.6856 5.7191 5.7525 5.786 5.8194 5.8528 5.8863 5.9197 5.9532 5.9866 6.0201 6.0535 6.087 6.1204 6.1538 6.1873 6.2207 6.2542 6.2876 6.3211 6.3545 6.388 6.4214 6.4548 6.4883 6.5217 6.5552 6.5886 6.6221 6.6555 6.689 6.7224 6.7559 6.7893 6.8227 6.8562 6.8896 6.9231 6.9565 6.99 7.0234 7.0569 7.0903 7.1237 7.1572 7.1906 7.2241 7.2575 7.291 7.3244 7.3579 7.3913 7.4247 7.4582 7.4916 7.5251 7.5585 7.592 7.6254 7.6589 7.6923 7.7258 7.7592 7.7926 7.8261 7.8595 7.893 7.9264 7.9599 7.9933 8.0268 8.0602 8.0936 8.1271 8.1605 8.194 8.2274 8.2609 8.2943 8.3278 8.3612 8.3946 8.4281 8.4615 8.495 8.5284 8.5619 8.5953 8.6288 8.6622 8.6957 8.7291 8.7625 8.796 8.8294 8.8629 8.8963 8.9298 8.9632 8.9967 9.0301 9.0635 9.097 9.1304 9.1639 9.1973 9.2308 9.2642 9.2977 9.3311 9.3645 9.398 9.4314 9.4649 9.4983 9.5318 9.5652 9.5987 9.6321 9.6656 9.699 9.7324 9.7659 9.7993 9.8328 9.8662 9.8997 9.9331 9.9666 10"
102001 68 1 0 1 "-253.7697 -253.7868 -253.6992 -253.6813 -253.7379 -253.5975 -253.5168 -253.4378 -253.4053 -253.2453 -252.9057 -252.8694 -253.0227 -253.1158 -253.2433 -253.2901 -253.3647 -253.4329 -253.5382 -253.719 -253.6043 -253.6165 -253.6432 -253.6599 -253.6817 -253.6719 -253.6837 -253.7182 -253.7524 -253.8564 -253.9245 -253.8997 -253.802 -253.7516 -253.6638 -253.613 -253.4784 -253.4114 -253.228 -253.2028 -253.2302 -253.2969 -253.4892 -253.5053 -253.5861 -253.4896 -253.4972 -253.516 -253.581 -253.599 -253.6438 -253.8311 -253.8708 -253.9331 -253.9223 -253.8478 -253.9761 -254.0111 -253.9072 -253.9347 -253.5943 -253.5257 -253.5835 -253.4511 -253.5486 -253.315 -253.3485 -253.5249 -253.5614 -253.4919 -253.4951 -253.5284 -253.5215 -253.6962 -253.5949 -253.5924 -253.6359 -253.6085 -253.7795 -253.8061 -253.8863 -253.8987 -253.7088 -253.7287 -253.7546 -253.8226 -253.8541 -253.787 -253.6831 -253.559 -253.4174 -253.4025 -253.5096 -253.496 -253.2805 -253.3322 -253.4451 -253.4772 -253.5104 -253.5317 -253.6937 -253.7432 -253.6444 -253.6467 -253.7068 -253.7108 -253.7228 -253.7265 -253.7353 -253.9026 -253.9162 -253.8639 -253.7292 -253.7015 -253.6554 -253.5934 -253.53 -253.548 -253.3731 -253.325 -253.2554 -253.2942 -253.4582 -253.303 -253.4333 -253.43 -253.2891 -253.3203 -253.4268 -253.5553 -253.5015 -253.7198 -253.7389 -253.756 -253.6253 -253.7994 -253.8375 -253.8324 -253.7332 -253.6717 -253.5417 -253.4378 -253.5386 -253.5159 -253.499 -253.5049 -253.3849 -253.592 -253.6436 -253.568 -253.6041 -253.679 -253.5655 -253.7672 -253.8006 -253.8307 -253.8724 -253.9268 -253.9448 -253.9544 -253.9713 -253.9932 -254.018 -254.0363 -253.9371 -253.8047 -253.6438 -253.7125 -253.655 -253.3579 -253.3044 -253.3606 -253.388 -252.7078 -252.4078 -252.7881 -253.3485 -253.5027 -253.3959 -253.5113 -253.8515 -253.9558 -253.8334 -253.8891 -253.9166 -253.8027 -253.7332 -253.8633 -253.9178 -253.9117 -253.9381 -253.943 -253.7721 -253.6848 -253.6589 -253.6073 -253.5716 -253.5376 -253.3812 -253.3637 -253.4104 -253.5718 -253.5981 -253.4511 -253.4023 -253.5831 -253.5924 -253.3643 -253.3203 -253.3524 -253.4888 -253.5247 -253.3912 -253.4711 -253.5608 -253.6377 -253.6827 -253.744 -253.7758 -253.7349 -253.6006 -253.6846 -253.6446 -253.4917 -253.4035 -253.5306 -253.3551 -253.5096 -253.44 -253.4261 -253.5553 -253.5888 -253.6273 -253.6253 -253.458 -253.5047 -253.6862 -253.7709 -253.7909 -253.5778 -253.5941 -253.7656 -253.8287 -253.8476 -253.8446 -253.8299 -253.6328 -253.4656 -253.5455 -253.4606 -253.4 -253.3912 -253.5129 -253.5259 -253.5323 -253.5639 -253.5323 -253.5402 -253.4539 -253.4627 -253.708 -253.7328 -253.6257 -253.6326 -253.686 -253.6988 -253.6776 -253.7074 -253.7259 -253.7554 -253.7241 -253.908 -253.8531 -253.7457 -253.6438 -253.4982 -253.4002 -253.343 -253.547 -253.603 -253.5908 -253.6301 -253.5667 -253.5749 -253.6418 -253.8077 -253.8344 -253.8678 -253.8914 -253.9211 -253.8145 -253.8167 -253.9373 -253.8698 -253.99 -254.0024 -254.0078 -254.0146 -253.903 -253.8254" "0 0.033445 0.06689 0.10033 0.13378 0.16722 0.20067 0.23411 0.26756 0.301 0.33445 0.36789 0.40134 0.43478 0.46823 0.50167 0.53512 0.56856 0.60201 0.63545 0.6689 0.70234 0.73579 0.76923 0.80268 0.83612 0.86957 0.90301 0.93645 0.9699 1.0033 1.0368 1.0702 1.1037 1.1371 1.1706 1.204 1.2375 1.2709 1.3043 1.3378 1.3712 1.4047 1.4381 1.4716 1.505 1.5385 1.5719 1.6054 1.6388 1.6722 1.7057 1.7391 1.7726 1.806 1.8395 1.8729 1.9064 1.9398 1.9732 2.0067 2.0401 2.0736 2.107 2.1405 2.1739 2.2074 2.2408 2.2742 2.3077 2.3411 2.3746 2.408 2.4415 2.4749 2.5084 2.5418 2.5753 2.6087 2.6421 2.6756 2.709 2.7425 2.7759 2.8094 2.8428 2.8763 2.9097 2.9431 2.9766 3.01 3.0435 3.0769 3.1104 3.1438 3.1773 3.2107 3.2441 3.2776 3.311 3.3445 3.3779 3.4114 3.4448 3.4783 3.5117 3.5452 3.5786 3.612 3.6455 3.6789 3.7124 3.7458 3.7793 3.8127 3.8462 3.8796 3.913 3.9465 3.9799 4.0134 4.0468 4.0803 4.1137 4.1472 4.1806 4.214 4.2475 4.2809 4.3144 4.3478 4.3813 4.4147 4.4482 4.4816 4.5151 4.5485 4.5819 4.6154 4.6488 4.6823 4.7157 4.7492 4.7826 4.8161 4.8495 4.8829 4.9164 4.9498 4.9833 5.0167 5.0502 5.0836 5.1171 5.1505 5.1839 5.2174 5.2508 5.2843 5.3177 5.3512 5.3846 5.4181 5.4515 5.4849 5.5184 5.5518 5.5853 5.6187 5.6522 5.6856 5.7191 5.7525 5.786 5.8194 5.8528 5.8863 5.9197 5.9532 5.9866 6.0201 6.0535 6.087 6.1204 6.1538 6.1873 6.2207 6.2542 6.2876 6.3211 6.3545 6.388 6.4214 6.4548 6.4883 6.5217 6.5552 6.5886 6.6221 6.6555 6.689 6.7224 6.7559 6.7893 6.8227 6.8562 6.8896 6.9231 6.9565 6.99 7.0234 7.0569 7.0903 7.1237 7.1572 7.1906 7.2241 7.2575 7.291 7.3244 7.3579 7.3913 7.4247 7.4582 7.4916 7.5251 7.5585 7.592 7.6254 7.6589 7.6923 7.7258 7.7592 7.7926 7.8261 7.8595 7.893 7.9264 7.9599 7.9933 8.0268 8.0602 8.0936 8.1271 8.1605 8.194 8.2274 8.2609 8.2943 8.3278 8.3612 8.3946 8.4281 8.4615 8.495 8.5284 8.5619 8.5953 8.6288 8.6622 8.6957 8.7291 8.7625 8.796 8.8294 8.8629 8.8963 8.9298 8.9632 8.9967 9.0301 9.0635 9.097 9.1304 9.1639 9.1973 9.2308 9.2642 9.2977 9.3311 9.3645 9.398 9.4314 9.4649 9.4983 9.5318 9.5652 9.5987 9.6321 9.6656 9.699 9.7324 9.7659 9.7993 9.8328 9.8662 9.8997 9.9331 9.9666 10"
102002 66 1 0 1 "-253.7656 -253.6344 -253.765 -253.7917 -253.7534 -253.7151 -253.6982 -253.7416 -253.7015 -253.7039 -253.7053 -253.8798 -253.9117 -253.9383 -254.0062 -254.0117 -254.0272 -254.0558 -254.1098 -254.1208 -254.0601 -254.1112 -254.1246 -254.1047 -254.1108 -254.1334 -254.0716 -254.1516 -254.1196 -254.03 -254.0381 -253.9127 -253.8808 -253.8912 -253.9158 -253.9692 -254.02 -253.9505 -253.8305 -253.7953 -253.8517 -253.8714 -254.0716 -254.082 -253.9477 -253.9379 -253.9698 -253.9625 -253.9763 -254.1382 -254.166 -254.1537 -254.083 -254.1849 -254.2299 -254.2379 -254.0995 -253.8051 -253.8806 -253.8865 -253.8501 -253.7854 -253.7615 -253.7894 -253.8287 -253.8181 -253.685 -253.9007 -253.9143 -253.9036 -253.8973 -253.8814 -253.8731 -253.905 -253.9247 -253.9922 -253.8838 -253.8875 -254.0056 -254.0235 -254.0261 -254.0588 -254.1244 -254.1141 -253.9766 -253.9145 -253.8663 -253.6752 -253.6418 -253.7485 -253.8318 -253.8712 -253.892 -253.9759 -253.9885 -254.0024 -253.9961 -254.0024 -253.9934 -253.9227 -254.0428 -254.0751 -254.0958 -254.1358 -254.152 -254.1567 -254.1811 -254.1666 -254.1802 -254.1825 -254.1811 -254.1595 -254.0485 -253.9542 -253.8934 -253.8631 -253.8033 -253.6511 -253.7697 -253.8098 -253.8269 -253.7096 -253.708 -253.7493 -253.7805 -254.0229 -254.0334 -254.0117 -254.0105 -253.9796 -253.9912 -254.0274 -253.9198 -253.9247 -253.9355 -253.9546 -254.095 -254.0462 -253.9763 -253.9668 -253.8775 -253.701 -253.6303 -253.5553 -253.5796 -253.7343 -253.7729 -253.7835 -253.7448 -253.797 -253.6049 -253.6788 -253.8163 -253.8277 -253.8844 -253.9089 -253.9042 -253.8897 -253.8991 -253.9869 -254.0444 -253.9658 -253.9928 -254.0402 -254.0464 -254.0018 -253.9814 -253.8684 -253.7469 -253.7114 -253.6358 -253.4606 -253.6016 -253.6456 -253.7116 -253.7573 -253.8155 -253.7161 -253.7351 -253.7725 -253.8393 -253.6246 -253.634 -253.8275 -253.8547 -253.7249 -253.8033 -253.8655 -253.8737 -253.8979 -253.9438 -253.9627 -253.9302 -253.655 -253.5676 -253.4923 -253.4345 -253.4349 -253.6049 -253.497 -253.5394 -253.6393 -253.663 -253.6941 -253.7074 -253.7277 -253.7599 -253.8206 -253.8409 -253.8086 -253.8218 -253.8358 -253.8954 -253.7951 -253.9211 -253.9072 -253.8171 -253.8224 -253.8552 -253.7554 -253.6827 -253.722 -253.653 -253.6261 -253.5967 -253.6216 -253.6399 -253.7051 -253.7505 -253.7542 -253.8491 -253.8645 -253.8165 -253.8464 -253.8869 -253.8442 -253.9644 -253.97 -254.0647 -253.9127 -253.8698 -253.9729 -254.0387 -253.9387 -253.9595 -254.0903 -254.082 -254.043 -253.87 -253.8061 -253.6244 -253.5596 -253.547 -253.47 -253.6691 -253.5788 -253.5937 -253.7497 -253.7717 -253.6884 -253.688 -253.8558 -253.8724 -253.9176 -253.9276 -254.0438 -254.0227 -254.0091 -253.9981 -254.0259 -254.0617 -254.0895 -254.0572 -254.0204 -253.9467 -253.8218 -253.786 -253.7383 -253.7192 -253.6886 -253.5604 -253.7961 -253.8185 -253.7452 -253.7167 -253.7369 -253.7799 -253.6823 -253.8743 -253.8924 -253.9001 -253.9251 -253.8228 -253.9444 -253.9788 -253.9839 -254.0046 -254.0158 -253.9115 -254.0286" "0 0.033445 0.06689 0.10033 0.13378 0.16722 0.20067 0.23411 0.26756 0.301 0.33445 0.36789 0.40134 0.43478 0.46823 0.50167 0.53512 0.56856 0.60201 0.63545 0.6689 0.70234 0.73579 0.76923 0.80268 0.83612 0.86957 0.90301 0.93645 0.9699 1.0033 1.0368 1.0702 1.1037 1.1371 1.1706 1.204 1.2375 1.2709 1.3043 1.3378 1.3712 1.4047 1.4381 1.4716 1.505 1.5385 1.5719 1.6054 1.6388 1.6722 1.7057 1.7391 1.7726 1.806 1.8395 1.8729 1.9064 1.9398 1.9732 2.0067 2.0401 2.0736 2.107 2.1405 2.1739 2.2074 2.2408 2.2742 2.3077 2.3411 2.3746 2.408 2.4415 2.4749 2.5084 2.5418 2.5753 2.6087 2.6421 2.6756 2.709 2.7425 2.7759 2.8094 2.8428 2.8763 2.9097 2.9431 2.9766 3.01 3.0435 3.0769 3.1104 3.1438 3.1773 3.2107 3.2441 3.2776 3.311 3.3445 3.3779 3.4114 3.4448 3.4783 3.5117 3.5452 3.5786 3.612 3.6455 3.6789 3.7124 3.7458 3.7793 3.8127 3.8462 3.8796 3.913 3.9465 3.9799 4.0134 4.0468 4.0803 4.1137 4.1472 4.1806 4.214 4.2475 4.2809 4.3144 4.3478 4.3813 4.4147 4.4482 4.4816 4.5151 4.5485 4.5819 4.6154 4.6488 4.6823 4.7157 4.7492 4.7826 4.8161 4.8495 4.8829 4.9164 4.9498 4.9833 5.0167 5.0502 5.0836 5.1171 5.1505 5.1839 5.2174 5.2508 5.2843 5.3177 5.3512 5.3846 5.4181 5.4515 5.4849 5.5184 5.5518 5.5853 5.6187 5.6522 5.6856 5.7191 5.7525 5.786 5.8194 5.8528 5.8863 5.9197 5.9532 5.9866 6.0201 6.0535 6.087 6.1204 6.1538 6.1873 6.2207 6.2542 6.2876 6.3211 6.3545 6.388 6.4214 6.4548 6.4883 6.5217 6.5552 6.5886 6.6221 6.6555 6.689 6.7224 6.7559 6.7893 6.8227 6.8562 6.8896 6.9231 6.9565 6.99 7.0234 7.0569 7.0903 7.1237 7.1572 7.1906 7.2241 7.2575 7.291 7.3244 7.3579 7.3913 7.4247 7.4582 7.4916 7.5251 7.5585 7.592 7.6254 7.6589 7.6923 7.7258 7.7592 7.7926 7.8261 7.8595 7.893 7.9264 7.9599 7.9933 8.0268 8.0602 8.0936 8.1271 8.1605 8.194 8.2274 8.2609 8.2943 8.3278 8.3612 8.3946 8.4281 8.4615 8.495 8.5284 8.5619 8.5953 8.6288 8.6622 8.6957 8.7291 8.7625 8.796 8.8294 8.8629 8.8963 8.9298 8.9632 8.9967 9.0301 9.0635 9.097 9.1304 9.1639 9.1973 9.2308 9.2642 9.2977 9.3311 9.3645 9.398 9.4314 9.4649 9.4983 9.5318 9.5652 9.5987 9.6321 9.6656 9.699 9.7324 9.7659 9.7993 9.8328 9.8662 9.8997 9.9331 9.9666 10"
102003 67 1 0 1 "-253.9658 -253.9729 -253.9755 -254.0245 -253.9605 -253.8853 -253.7994 -253.7782 -253.8082 -253.7849 -253.7898 -253.8214 -253.8248 -253.8141 -253.776 -253.8468 -253.8661 -253.9469 -253.9847 -253.8627 -253.9784 -253.9953 -254.0064 -253.9345 -254.0674 -254.0978 -254.123 -254.148 -254.1484 -254.1411 -254.0495 -253.9577 -253.9178 -253.9452 -253.9048 -253.7852 -253.7422 -253.8499 -253.8844 -253.7526 -253.9345 -253.9676 -253.9511 -253.9757 -253.991 -254.0148 -254.0357 -253.9424 -254.056 -254.0666 -254.0869 -254.0974 -254.1204 -254.1466 -254.1815 -254.1894 -254.2009 -254.1652 -254.0243 -253.9887 -253.9174 -253.9052 -253.9209 -253.9457 -253.9727 -253.9631 -253.8838 -253.858 -253.9501 -253.9953 -254.0861 -254.1147 -254.1177 -254.1216 -254.1673 -254.1628 -254.177 -254.1537 -254.1545 -254.1963 -254.2354 -254.1547 -254.1388 -254.1869 -254.0875 -253.9497 -253.8855 -253.8432 -253.8061 -253.7681 -253.7947 -253.8389 -253.8356 -253.822 -253.8448 -253.8912 -253.929 -253.9753 -253.9967 -253.8773 -253.8678 -253.9908 -254.0525 -254.0737 -254.0781 -254.0958 -254.0897 -254.1033 -254.0595 -254.033 -254.0962 -254.0416 -253.9967 -253.9621 -253.9178 -253.88 -253.8674 -253.8763 -253.7945 -253.9166 -253.9438 -253.9593 -254.0026 -254.0288 -253.9987 -254.0172 -254.0538 -254.054 -254.0131 -254.1528 -254.1701 -254.1447 -254.1455 -254.1762 -254.1914 -254.1737 -254.1043 -254.1417 -254.0999 -254.0469 -253.9554 -253.9237 -253.8796 -253.8543 -253.756 -253.7605 -253.8936 -253.7803 -253.7636 -253.9497 -254.0146 -254.0125 -254.0119 -254.0696 -254.0844 -254.0769 -254.0757 -254.0702 -254.0623 -254.0745 -254.0763 -254.0783 -254.0822 -254.0844 -254.0915 -254.0308 -253.9694 -253.9428 -253.9316 -253.8722 -253.732 -253.7809 -253.799 -253.8301 -253.8242 -253.763 -253.8808 -253.9115 -253.8206 -253.823 -253.9755 -253.9936 -254.0109 -254.0621 -254.07 -254.0731 -254.0783 -254.0704 -254.0769 -254.067 -254.0798 -254.0765 -254.0353 -253.9717 -253.8993 -253.8751 -253.858 -253.8356 -253.8401 -253.8254 -253.8582 -253.8588 -253.8838 -253.8753 -253.8871 -253.8828 -253.9097 -253.9243 -253.9489 -253.9698 -254.0018 -253.8828 -253.8985 -253.9145 -254.0007 -254.0416 -254.0525 -254.0651 -254.0489 -253.9812 -253.802 -253.8507 -253.8511 -253.8043 -253.7074 -253.7841 -253.8236 -253.8407 -253.8401 -253.7809 -253.8356 -253.8796 -253.8859 -253.9109 -253.9343 -253.9713 -254.0081 -254.0129 -253.9792 -253.9822 -253.9839 -253.8845 -253.9944 -254.0074 -254.0566 -254.0718 -254.0621 -253.9761 -253.9396 -253.8602 -253.8183 -253.6277 -253.6157 -253.8061 -253.8328 -253.8134 -253.8122 -253.7615 -253.8562 -253.869 -253.7701 -253.7638 -253.9154 -253.9416 -253.9198 -253.9331 -253.9491 -253.9843 -254.0087 -254.0026 -253.9959 -253.9924 -253.991 -253.9493 -253.9558 -253.882 -253.8141 -253.7852 -253.8438 -253.8173 -253.6075 -253.5947 -253.7029 -253.7395 -253.7707 -253.8023 -253.8267 -253.8657 -253.8887 -253.8979 -253.9034 -253.9089 -253.9204 -253.9324 -253.9412 -253.8578 -253.952 -253.9566 -253.8834 -253.87" "0 0.033445 0.06689 0.10033 0.13378 0.16722 0.20067 0.23411 0.26756 0.301 0.33445 0.36789 0.40134 0.43478 0.46823 0.50167 0.53512 0.56856 0.60201 0.63545 0.6689 0.70234 0.73579 0.76923 0.80268 0.83612 0.86957 0.90301 0.93645 0.9699 1.0033 1.0368 1.0702 1.1037 1.1371 1.1706 1.204 1.2375 1.2709 1.3043 1.3378 1.3712 1.4047 1.4381 1.4716 1.505 1.5385 1.5719 1.6054 1.6388 1.6722 1.7057 1.7391 1.7726 1.806 1.8395 1.8729 1.9064 1.9398 1.9732 2.0067 2.0401 2.0736 2.107 2.1405 2.1739 2.2074 2.2408 2.2742 2.3077 2.3411 2.3746 2.408 2.4415 2.4749 2.5084 2.5418 2.5753 2.6087 2.6421 2.6756 2.709 2.7425 2.7759 2.8094 2.8428 2.8763 2.9097 2.9431 2.9766 3.01 3.0435 3.0769 3.1104 3.1438 3.1773 3.2107 3.2441 3.2776 3.311 3.3445 3.3779 3.4114 3.4448 3.4783 3.5117 3.5452 3.5786 3.612 3.6455 3.6789 3.7124 3.7458 3.7793 3.8127 3.8462 3.8796 3.913 3.9465 3.9799 4.0134 4.0468 4.0803 4.1137 4.1472 4.1806 4.214 4.2475 4.2809 4.3144 4.3478 4.3813 4.4147 4.4482 4.4816 4.5151 4.5485 4.5819 4.6154 4.6488 4.6823 4.7157 4.7492 4.7826 4.8161 4.8495 4.8829 4.9164 4.9498 4.9833 5.0167 5.0502 5.0836 5.1171 5.1505 5.1839 5.2174 5.2508 5.2843 5.3177 5.3512 5.3846 5.4181 5.4515 5.4849 5.5184 5.5518 5.5853 5.6187 5.6522 5.6856 5.7191 5.7525 5.786 5.8194 5.8528 5.8863 5.9197 5.9532 5.9866 6.0201 6.0535 6.087 6.1204 6.1538 6.1873 6.2207 6.2542 6.2876 6.3211 6.3545 6.388 6.4214 6.4548 6.4883 6.5217 6.5552 6.5886 6.6221 6.6555 6.689 6.7224 6.7559 6.7893 6.8227 6.8562 6.8896 6.9231 6.9565 6.99 7.0234 7.0569 7.0903 7.1237 7.1572 7.1906 7.2241 7.2575 7.291 7.3244 7.3579 7.3913 7.4247 7.4582 7.4916 7.5251 7.5585 7.592 7.6254 7.6589 7.6923 7.7258 7.7592 7.7926 7.8261 7.8595 7.893 7.9264 7.9599 7.9933 8.0268 8.0602 8.0936 8.1271 8.1605 8.194 8.2274 8.2609 8.2943 8.3278 8.3612 8.3946 8.4281 8.4615 8.495 8.5284 8.5619 8.5953 8.6288 8.6622 8.6957 8.7291 8.7625 8.796 8.8294 8.8629 8.8963 8.9298 8.9632 8.9967 9.0301 9.0635 9.097 9.1304 9.1639 9.1973 9.2308 9.2642 9.2977 9.3311 9.3645 9.398 9.4314 9.4649 9.4983 9.5318 9.5652 9.5987 9.6321 9.6656 9.699 9.7324 9.7659 9.7993 9.8328 9.8662 9.8997 9.9331 9.9666 10"
102004 66 1 8 1 "-254.9705 -255.0001 -255.0001 -255.0001 -255.0001 -255.0001 -255.0001 -255.0001 -255.0001 -255.0001 -255.0001 -254.8345 -245.2284 -207.3075 -160.6554 -132.3318 -127.9434 -125.7507 -125.7317 -114.2831 -108.2244 -106.0859 -104.5387 -103.4196 -102.017 -102.2207 -102.6975 -104.9843 -108.0566 -112.0136 -115.788 -124.956 -162.7213 -218.4934 -236.2629 -236.5534 -225.3327 -225.8264 -192.7133 -198.988 -206.4011 -210.5029 -220.3274 -234.7388 -238.0468 -239.9298 -241.7622 -237.8533 -229.9547 -236.5392 -238.5801 -239.6517 -238.868 -238.264 -236.6274 -238.1759 -242.5146 -244.1794 -245.0985 -246.9686 -249.203 -247.8979 -248.5957 -245.3027 -249.6199 -250.0668 -250.8432 -253.304 -252.944 -240.4512 -186.7995 -116.4497 -116.6638 -105.1491 -127.2033 -126.0535 -120.1996 -111.3224 -108.15 -107.9976 -110.3129 -115.8794 -124.0136 -141.1413 -208.5845 -237.9256 -236.2035 -218.6232 -214.0773 -172.5048 -185.7408 -193.78 -199.3277 -212.3527 -217.3036 -219.6963 -222.5546 -231.4923 -236.8468 -238.9223 -236.2907 -235.1247 -236.5546 -238.4131 -240.0599 -241.8584 -245.5676 -246.14 -245.2541 -243.4787 -240.361 -238.1591 -236.9875 -237.2417 -236.281 -240.0103 -238.0684 -241.9754 -242.1995 -245.668 -251.9589 -252.5893 -249.757 -224.9506 -170.0193 -112.2804 -69.7717 -125.1434 -134.0152 -133.3568 -128.667 -117.4775 -112.01 -111.852 -119.407 -137.1607 -190.3823 -236.4797 -229.6382 -226.6823 -208.3446 -227.568 -242.4003 -250.2216 -254.818 -254.9999 -254.9997 -255.0001 -254.9999 -254.2362 -250.0819 -241.2485 -228.9754 -220.455 -219.7918 -226.8093 -237.0548 -245.6682 -250.2776 -251.293 -250.8542 -249.7702 -246.9434 -243.6752 -242.0952 -243.4076 -246.6681 -249.4035 -251.5307 -253.3982 -254.9898 -255.0001 -254.9989 -250.6512 -221.0935 -175.495 -148.1948 -133.4861 -143.8458 -140.4097 -135.1729 -130.3989 -120.4736 -116.2466 -115.9949 -116.2652 -121.9028 -128.175 -139.1837 -164.9122 -219.8831 -244.1276 -241.9999 -239.0469 -217.6158 -228.1335 -242.5358 -248.5352 -253.4988 -254.9505 -254.9999 -255.0001 -255.0001 -254.9808 -254.8644 -254.4492 -253.8914 -252.1753 -248.1809 -243.0653 -237.797 -232.2204 -227.4554 -225.1013 -224.0995 -226.47 -234.095 -240.9381 -243.432 -245.0038 -244.6359 -244.9071 -246.0005 -249.0323 -252.5936 -254.9037 -254.8486 -245.6453 -200.1729 -151.7523 -125.1155 -114.5327 -134.7792 -132.6323 -127.1664 -120.7959 -113.2898 -111.2086 -111.3094 -112.7211 -116.1475 -125.3374 -159.3579 -230.9428 -232.8232 -226.7758 -209.5782 -220.8392 -238.6849 -248.0993 -252.8572 -254.9997 -255.0001 -255.0001 -255.0001 -255.0001 -255.0001 -254.9999 -254.7909 -253.7082 -252.4222 -252.3738 -252.6932 -253.089 -253.071 -253.5057 -253.954 -253.601 -251.9339 -250.1745 -249.3782 -248.5923 -248.5067 -249.1234 -250.0605 -251.4455 -253.2175 -254.7669 -255.0001 -255.0001 -255.0001 -255.0001 -255.0001 -253.708 -237.7461 -205.5366 -173.7923 -143.4182 -129.3494 -116.0605 -114.9438 -108.199 -109.1847 -110.6785 -116.4295 -125.9713 -148.6642 -183.4959 -237.8234 -244.6726" "0 0.033445 0.06689 0.10033 0.13378 0.16722 0.20067 0.23411 0.26756 0.301 0.33445 0.36789 0.40134 0.43478 0.46823 0.50167 0.53512 0.56856 0.60201 0.63545 0.6689 0.70234 0.73579 0.76923 0.80268 0.83612 0.86957 0.90301 0.93645 0.9699 1.0033 1.0368 1.0702 1.1037 1.1371 1.1706 1.204 1.2375 1.2709 1.3043 1.3378 1.3712 1.4047 1.4381 1.4716 1.505 1.5385 1.5719 1.6054 1.6388 1.6722 1.7057 1.7391 1.7726 1.806 1.8395 1.8729 1.9064 1.9398 1.9732 2.0067 2.0401 2.0736 2.107 2.1405 2.1739 2.2074 2.2408 2.2742 2.3077 2.3411 2.3746 2.408 2.4415 2.4749 2.5084 2.5418 2.5753 2.6087 2.6421 2.6756 2.709 2.7425 2.7759 2.8094 2.8428 2.8763 2.9097 2.9431 2.9766 3.01 3.0435 3.0769 3.1104 3.1438 3.1773 3.2107 3.2441 3.2776 3.311 3.3445 3.3779 3.4114 3.4448 3.4783 3.5117 3.5452 3.5786 3.612 3.6455 3.6789 3.7124 3.7458 3.7793 3.8127 3.8462 3.8796 3.913 3.9465 3.9799 4.0134 4.0468 4.0803 4.1137 4.1472 4.1806 4.214 4.2475 4.2809 4.3144 4.3478 4.3813 4.4147 4.4482 4.4816 4.5151 4.5485 4.5819 4.6154 4.6488 4.6823 4.7157 4.7492 4.7826 4.8161 4.8495 4.8829 4.9164 4.9498 4.9833 5.0167 5.0502 5.0836 5.1171 5.1505 5.1839 5.2174 5.2508 5.2843 5.3177 5.3512 5.3846 5.4181 5.4515 5.4849 5.5184 5.5518 5.5853 5.6187 5.6522 5.6856 5.7191 5.7525 5.786 5.8194 5.8528 5.8863 5.9197 5.9532 5.9866 6.0201 6.0535 6.087 6.1204 6.1538 6.1873 6.2207 6.2542 6.2876 6.3211 6.3545 6.388 6.4214 6.4548 6.4883 6.5217 6.5552 6.5886 6.6221 6.6555 6.689 6.7224 6.7559 6.7893 6.8227 6.8562 6.8896 6.9231 6.9565 6.99 7.0234 7.0569 7.0903 7.1237 7.1572 7.1906 7.2241 7.2575 7.291 7.3244 7.3579 7.3913 7.4247 7.4582 7.4916 7.5251 7.5585 7.592 7.6254 7.6589 7.6923 7.7258 7.7592 7.7926 7.8261 7.8595 7.893 7.9264 7.9599 7.9933 8.0268 8.0602 8.0936 8.1271 8.1605 8.194 8.2274 8.2609 8.2943 8.3278 8.3612 8.3946 8.4281 8.4615 8.495 8.5284 8.5619 8.5953 8.6288 8.6622 8.6957 8.7291 8.7625 8.796 8.8294 8.8629 8.8963 8.9298 8.9632 8.9967 9.0301 9.0635 9.097 9.1304 9.1639 9.1973 9.2308 9.2642 9.2977 9.3311 9.3645 9.398 9.4314 9.4649 9.4983 9.5318 9.5652 9.5987 9.6321 9.6656 9.699 9.7324 9.7659 9.7993 9.8328 9.8662 9.8997 9.9331 9.9666 10"
103001 86 1 0 0 "-252.8298 -252.8931 -253.0007 -253.0673 -252.6934 -253.5159 -253.1731 -253.5455 -253.1785 -253.2278 -253.6132 -253.6548 -253.7057 -253.4637 -253.8804 -253.6153 -253.6491 -253.6591 -253.9009 -253.4076 -252.8109 -253.193 -253.2566 -253.6548 -253.7585 -253.8362 -253.6242 -253.9835 -253.9674 -253.6668 -253.6238 -253.6609 -253.9412 -253.9694 -253.9615 -253.7261 -253.4076 -254.0976 -254.4486 -254.2821 -254.3188 -253.6138 -253.2073 -253.3679 -252.9268 -252.9678 -253.4664 -253.521 -253.5488 -253.2578 -253.6324 -253.6473 -253.2466 -253.2832 -253.305 -253.7322 -253.4378 -253.8246 -253.8879 -253.9298 -254.0257 -253.6621 -253.7173 -253.7175 -253.2829 -253.1435 -253.4415 -253.4704 -253.7994 -253.5506 -253.5317 -253.5159 -253.7607 -253.0778 -253.0769 -253.4664 -253.4317 -253.6693 -253.6371 -253.2324 -253.2063 -253.1639 -253.5602 -253.5319 -253.4764 -253.2956 -252.7035 -252.7107 -253.1856 -253.2643 -252.9235 -253.3189 -253.2715 -252.3882 -252.3948 -252.9175 -253.0518 -253.0649 -253.1703 -253.1827 -253.2455 -253.6204 -253.6275 -253.2081 -253.08 -252.8675 -252.6967 -253.0835 -253.1095 -253.4984 -252.8833 -252.465 -253.3201 -253.3018 -252.9104 -252.921 -252.963 -252.9592 -253.0188 -253.4027 -253.42 -253.4043 -253.4016 -252.8841 -252.7411 -252.55 -252.4397 -252.6154 -253.2138 -253.0376 -253.5315 -253.1355 -253.1193 -253.1388 -253.1799 -253.1776 -253.2046 -253.5722 -253.6204 -253.2969 -253.3322 -253.3148 -253.1989 -253.0405 -252.9278 -252.9624 -253.0071 -253.1289 -253.1936 -253.2476 -253.2592 -252.8415 -253.6882 -253.6994 -253.4247 -253.7585 -253.478 -253.5157 -253.285 -253.6862 -253.6907 -253.7778 -253.2782 -253.0913 -252.9827 -253.0657 -253.5421 -253.5879 -253.3308 -253.381 -253.4206 -253.4602 -253.5335 -253.5855 -253.2782 -253.8141 -253.812 -253.52 -253.5519 -253.9146 -253.8096 -253.4786 -253.4884 -253.5174 -253.7273 -253.1246 -253.5017 -253.5266 -253.5345 -253.5618 -253.2327 -253.2351 -253.2361 -253.6507 -253.696 -253.7023 -253.7247 -253.4629 -253.4868 -253.1453 -253.6126 -253.4323 -253.7041 -253.3782 -253.6945 -253.6491 -253.1997 -253.148 -253.1633 -253.1672 -253.1954 -253.5186 -253.5496 -253.183 -253.1872 -253.1637 -253.1478 -253.1154 -253.1142 -253.1406 -253.529 -253.5741 -253.1752 -253.2206 -253.6589 -253.6252 -253.2081 -253.3298 -252.928 -253.3447 -253.0141 -253.0362 -253.0786 -253.1042 -253.1519 -253.1306 -253.1267 -252.7388 -253.1999 -253.23 -253.6414 -253.6607 -253.6807 -253.7192 -253.7145 -253.3718 -253.3573 -253.5973 -253.4623 -253.0835 -253.0816 -253.0749 -253.1146 -253.5292 -253.1449 -253.1517 -253.156 -253.1171 -253.5164 -253.5753 -253.2488 -253.2846 -253.3185 -253.7261 -253.7345 -253.7465 -253.7766 -253.7762 -253.7583 -253.3191 -253.2668 -253.4955 -253.5094 -253.1398 -253.1383 -253.1031 -253.0558 -253.0046 -252.9485 -252.9456 -252.9467 -252.9817 -253.4145 -253.4227 -253.0305 -253.0855 -253.099 -253.0706 -253.0667 -253.4219 -253.4339 -253.3528 -253.3285 -252.8776 -252.4374 -253.3363 -252.9075 -252.9417 -253.3007 -253.2783" "0 0.033445 0.06689 0.10033 0.13378 0.16722 0.20067 0.23411 0.26756 0.301 0.33445 0.36789 0.40134 0.43478 0.46823 0.50167 0.53512 0.56856 0.60201 0.63545 0.6689 0.70234 0.73579 0.76923 0.80268 0.83612 0.86957 0.90301 0.93645 0.9699 1.0033 1.0368 1.0702 1.1037 1.1371 1.1706 1.204 1.2375 1.2709 1.3043 1.3378 1.3712 1.4047 1.4381 1.4716 1.505 1.5385 1.5719 1.6054 1.6388 1.6722 1.7057 1.7391 1.7726 1.806 1.8395 1.8729 1.9064 1.9398 1.9732 2.0067 2.0401 2.0736 2.107 2.1405 2.1739 2.2074 2.2408 2.2742 2.3077 2.3411 2.3746 2.408 2.4415 2.4749 2.5084 2.5418 2.5753 2.6087 2.6421 2.6756 2.709 2.7425 2.7759 2.8094 2.8428 2.8763 2.9097 2.9431 2.9766 3.01 3.0435 3.0769 3.1104 3.1438 3.1773 3.2107 3.2441 3.2776 3.311 3.3445 3.3779 3.4114 3.4448 3.4783 3.5117 3.5452 3.5786 3.612 3.6455 3.6789 3.7124 3.7458 3.7793 3.8127 3.8462 3.8796 3.913 3.9465 3.9799 4.0134 4.0468 4.0803 4.1137 4.1472 4.1806 4.214 4.2475 4.2809 4.3144 4.3478 4.3813 4.4147 4.4482 4.4816 4.5151 4.5485 4.5819 4.6154 4.6488 4.6823 4.7157 4.7492 4.7826 4.8161 4.8495 4.8829 4.9164 4.9498 4.9833 5.0167 5.0502 5.0836 5.1171 5.1505 5.1839 5.2174 5.2508 5.2843 5.3177 5.3512 5.3846 5.4181 5.4515 5.4849 5.5184 5.5518 5.5853 5.6187 5.6522 5.6856 5.7191 5.7525 5.786 5.8194 5.8528 5.8863 5.9197 5.9532 5.9866 6.0201 6.0535 6.087 6.1204 6.1538 6.1873 6.2207 6.2542 6.2876 6.3211 6.3545 6.388 6.4214 6.4548 6.4883 6.5217 6.5552 6.5886 6.6221 6.6555 6.689 6.7224 6.7559 6.7893 6.8227 6.8562 6.8896 6.9231 6.9565 6.99 7.0234 7.0569 7.0903 7.1237 7.1572 7.1906 7.2241 7.2575 7.291 7.3244 7.3579 7.3913 7.4247 7.4582 7.4916 7.5251 7.5585 7.592 7.6254 7.6589 7.6923 7.7258 7.7592 7.7926 7.8261 7.8595 7.893 7.9264 7.9599 7.9933 8.0268 8.0602 8.0936 8.1271 8.1605 8.194 8.2274 8.2609 8.2943 8.3278 8.3612 8.3946 8.4281 8.4615 8.495 8.5284 8.5619 8.5953 8.6288 8.6622 8.6957 8.7291 8.7625 8.796 8.8294 8.8629 8.8963 8.9298 8.9632 8.9967 9.0301 9.0635 9.097 9.1304 9.1639 9.1973 9.2308 9.2642 9.2977 9.3311 9.3645 9.398 9.4314 9.4649 9.4983 9.5318 9.5652 9.5987 9.6321 9.6656 9.699 9.7324 9.7659 9.7993 9.8328 9.8662 9.8997 9.9331 9.9666 10"
103002 91 1 0 1 "-253.1895 -253.2934 -253.689 -253.3953 -253.4549 -253.8497 -253.9808 -253.6949 -253.7076 -253.8238 -253.6444 -253.5798 -253.632 -253.7377 -253.4976 -253.1762 -253.8771 -253.893 -254.0142 -254.0611 -253.5692 -253.2286 -253.6713 -253.7051 -253.7678 -253.7636 -253.7847 -253.6827 -253.105 -252.8605 -252.7955 -252.3506 -253.0657 -252.8495 -253.6955 -253.3641 -253.7039 -253.7595 -253.7408 -253.7404 -253.3765 -253.7133 -253.3633 -253.7237 -253.4043 -253.6878 -253.4186 -253.1347 -253.0974 -253.1649 -253.0796 -253.3206 -253.5455 -253.7353 -253.8491 -253.9503 -254.2401 -254.2496 -253.9497 -253.9267 -253.8873 -253.884 -253.8318 -253.9827 -253.7361 -253.2848 -253.1036 -253.0118 -253.0157 -253.174 -252.9936 -253.0356 -253.4778 -253.4953 -253.4798 -253.5145 -253.8031 -253.5951 -253.2909 -253.7485 -253.7658 -253.417 -253.4731 -253.4902 -252.9602 -253.4357 -252.8909 -252.8497 -252.9124 -253.0733 -253.5453 -253.2564 -253.8617 -253.8824 -253.6835 -253.3925 -253.4125 -253.1709 -253.5837 -253.6342 -254.0064 -254.0546 -253.801 -253.8108 -253.7049 -253.5276 -253.15 -253.4235 -253.4143 -253.4678 -253.6652 -253.3741 -253.3849 -253.4576 -253.5017 -253.5877 -253.9082 -253.6303 -253.9766 -254.0121 -253.7542 -254.0627 -253.8155 -253.7387 -253.7406 -253.9774 -253.4039 -253.1578 -252.9811 -253.3385 -253.5474 -253.2971 -253.7442 -253.8155 -253.8065 -253.4741 -253.8364 -253.4968 -253.8637 -253.5468 -253.9257 -253.9339 -253.6825 -253.7328 -253.7338 -253.9143 -253.5368 -252.9747 -252.9571 -253.468 -253.3011 -253.4302 -253.8183 -253.4862 -254.0274 -254.0103 -253.5327 -253.9139 -253.964 -253.9827 -254.032 -253.7884 -253.8318 -254.1561 -254.095 -254.0306 -253.7583 -253.6356 -253.5433 -253.5659 -253.2752 -253.3796 -253.4016 -253.4264 -253.8053 -253.7624 -253.775 -253.7601 -253.8136 -253.5347 -253.6238 -254.0064 -254.0755 -253.6935 -253.7155 -253.7514 -253.5096 -253.2237 -253.0014 -253.0102 -253.499 -253.6709 -253.4778 -253.5168 -253.8975 -253.5115 -253.5053 -253.5292 -253.614 -253.953 -254.02 -253.7628 -253.7845 -253.8092 -254.1492 -254.124 -253.5881 -253.2284 -252.9622 -252.9778 -253.0057 -253.177 -253.7212 -253.4159 -253.4862 -253.5025 -253.5168 -253.8531 -253.5847 -253.6326 -253.3459 -254.0956 -253.8556 -253.7713 -253.7628 -253.6843 -254.0213 -253.7406 -253.0352 -253.0835 -253.2063 -253.6788 -253.8033 -253.8196 -253.8635 -253.8356 -253.5633 -253.9587 -253.7139 -254.0988 -253.8861 -253.9778 -254.1025 -254.1057 -253.8517 -253.9019 -253.6764 -253.314 -253.0391 -253.4451 -253.4509 -253.2711 -253.4219 -253.8031 -253.5129 -253.7756 -253.4478 -253.8138 -253.8462 -253.5696 -254.1589 -254.1837 -253.5527 -253.581 -253.8989 -253.8069 -252.7856 -253.4784 -253.5149 -253.3253 -253.52 -253.6085 -253.6422 -253.2748 -253.3054 -253.304 -253.3369 -253.3953 -253.8126 -253.8869 -253.9015 -253.6438 -253.5623 -253.5102 -252.8224 -252.7337 -252.7249 -252.5449 -253.0923 -253.1545 -253.5467 -253.5406 -253.6018 -253.883 -253.9666 -253.4851 -253.5455 -253.5977 -253.6466 -253.6359" "0 0.033445 0.06689 0.10033 0.13378 0.16722 0.20067 0.23411 0.26756 0.301 0.33445 0.36789 0.40134 0.43478 0.46823 0.50167 0.53512 0.56856 0.60201 0.63545 0.6689 0.70234 0.73579 0.76923 0.80268 0.83612 0.86957 0.90301 0.93645 0.9699 1.0033 1.0368 1.0702 1.1037 1.1371 1.1706 1.204 1.2375 1.2709 1.3043 1.3378 1.3712 1.4047 1.4381 1.4716 1.505 1.5385 1.5719 1.6054 1.6388 1.6722 1.7057 1.7391 1.7726 1.806 1.8395 1.8729 1.9064 1.9398 1.9732 2.0067 2.0401 2.0736 2.107 2.1405 2.1739 2.2074 2.2408 2.2742 2.3077 2.3411 2.3746 2.408 2.4415 2.4749 2.5084 2.5418 2.5753 2.6087 2.6421 2.6756 2.709 2.7425 2.7759 2.8094 2.8428 2.8763 2.9097 2.9431 2.9766 3.01 3.0435 3.0769 3.1104 3.1438 3.1773 3.2107 3.2441 3.2776 3.311 3.3445 3.3779 3.4114 3.4448 3.4783 3.5117 3.5452 3.5786 3.612 3.6455 3.6789 3.7124 3.7458 3.7793 3.8127 3.8462 3.8796 3.913 3.9465 3.9799 4.0134 4.0468 4.0803 4.1137 4.1472 4.1806 4.214 4.2475 4.2809 4.3144 4.3478 4.3813 4.4147 4.4482 4.4816 4.5151 4.5485 4.5819 4.6154 4.6488 4.6823 4.7157 4.7492 4.7826 4.8161 4.8495 4.8829 4.9164 4.9498 4.9833 5.0167 5.0502 5.0836 5.1171 5.1505 5.1839 5.2174 5.2508 5.2843 5.3177 5.3512 5.3846 5.4181 5.4515 5.4849 5.5184 5.5518 5.5853 5.6187 5.6522 5.6856 5.7191 5.7525 5.786 5.8194 5.8528 5.8863 5.9197 5.9532 5.9866 6.0201 6.0535 6.087 6.1204 6.1538 6.1873 6.2207 6.2542 6.2876 6.3211 6.3545 6.388 6.4214 6.4548 6.4883 6.5217 6.5552 6.5886 6.6221 6.6555 6.689 6.7224 6.7559 6.7893 6.8227 6.8562 6.8896 6.9231 6.9565 6.99 7.0234 7.0569 7.0903 7.1237 7.1572 7.1906 7.2241 7.2575 7.291 7.3244 7.3579 7.3913 7.4247 7.4582 7.4916 7.5251 7.5585 7.592 7.6254 7.6589 7.6923 7.7258 7.7592 7.7926 7.8261 7.8595 7.893 7.9264 7.9599 7.9933 8.0268 8.0602 8.0936 8.1271 8.1605 8.194 8.2274 8.2609 8.2943 8.3278 8.3612 8.3946 8.4281 8.4615 8.495 8.5284 8.5619 8.5953 8.6288 8.6622 8.6957 8.7291 8.7625 8.796 8.8294 8.8629 8.8963 8.9298 8.9632 8.9967 9.0301 9.0635 9.097 9.1304 9.1639 9.1973 9.2308 9.2642 9.2977 9.3311 9.3645 9.398 9.4314 9.4649 9.4983 9.5318 9.5652 9.5987 9.6321 9.6656 9.699 9.7324 9.7659 9.7993 9.8328 9.8662 9.8997 9.9331 9.9666 10"
103003 100 1 0 1 "-253.5184 -253.5574 -253.6689 -253.8039 -253.8629 -253.8828 -253.5994 -253.6232 -253.6151 -253.3003 -254.0335 -254.0672 -254.096 -254.1409 -254.19 -254.2007 -253.8983 -254.017 -253.3757 -253.5659 -253.5592 -253.6126 -253.765 -253.8619 -253.5883 -253.6091 -253.5804 -253.5588 -253.9068 -253.9467 -253.7638 -253.8393 -254.1798 -253.9308 -253.968 -253.8836 -253.6112 -253.8832 -253.8084 -253.5155 -253.6244 -253.4029 -253.822 -253.8022 -253.7815 -253.7803 -253.7925 -253.7921 -253.8183 -253.8607 -253.8993 -253.6522 -253.6719 -253.9019 -253.6275 -253.0042 -252.961 -253.6994 -254.0879 -253.9658 -253.8067 -253.8138 -253.8244 -253.8222 -253.8118 -253.856 -253.9013 -253.969 -254.03 -254.1017 -254.1356 -254.277 -254.0946 -253.2862 -253.2676 -253.3103 -253.4511 -254.0846 -253.8718 -253.8606 -253.8466 -254.1709 -254.1898 -253.7245 -253.8643 -254.2425 -254.305 -254.3297 -254.0696 -253.9143 -253.5241 -253.2713 -253.8895 -253.9391 -253.7794 -253.8041 -253.5708 -254.0812 -254.0576 -254.0343 -254.0515 -253.8248 -253.8458 -253.8783 -253.9048 -253.9465 -254.0534 -253.8755 -253.4457 -253.4719 -253.1212 -253.1482 -253.6281 -253.6361 -253.7347 -253.8082 -253.9042 -253.98 -254.094 -254.3542 -254.4446 -254.417 -254.4721 -254.4411 -253.7039 -253.5482 -253.993 -254.005 -253.4243 -253.4668 -253.8804 -253.8688 -253.9538 -253.9885 -254.0326 -254.2555 -254.2815 -254.0806 -254.0674 -253.9091 -253.2376 -253.467 -252.9452 -253.0165 -253.4527 -253.6051 -253.6693 -253.3916 -253.0755 -253.1983 -253.9666 -254.0176 -254.0597 -253.8002 -253.8521 -253.8448 -253.6634 -253.7742 -253.689 -253.697 -253.6913 -253.5292 -253.8822 -253.9776 -254.0249 -254.0109 -254.0308 -254.0152 -253.7823 -254.1171 -254.1632 -254.4016 -254.3352 -253.8964 -253.7497 -253.6958 -253.3739 -254.04 -253.5141 -253.5971 -254.15 -254.1835 -253.8997 -253.9107 -254.1185 -254.1849 -253.6607 -253.7501 -253.8592 -254.2729 -254.095 -253.6169 -253.508 -253.4082 -253.2016 -253.3097 -253.3512 -253.0659 -253.5443 -253.3073 -253.763 -253.8269 -254.1877 -254.2121 -254.0068 -254.0091 -253.9912 -253.8607 -253.6466 -253.7526 -253.6774 -253.6273 -253.7182 -253.7878 -253.8484 -253.6138 -253.6414 -253.6524 -254.0349 -254.0946 -253.8875 -253.9404 -254.2334 -254.2648 -254.2817 -254.0887 -254.0361 -254.1932 -254.0062 -253.6434 -253.6469 -253.3565 -253.8248 -253.8607 -254.1246 -254.1707 -253.944 -254.0095 -253.7628 -253.4888 -254.1338 -253.8893 -253.9316 -254.2239 -254.2303 -254.4448 -254.4352 -254.2667 -254.0749 -253.6603 -253.6473 -253.6434 -253.6699 -253.7636 -253.848 -253.8562 -253.5519 -253.6098 -253.9452 -253.9847 -254.0178 -254.0662 -253.8421 -253.9082 -253.6501 -254.4856 -254.5089 -254.2608 -254.1739 -253.9328 -253.3116 -253.1725 -253.5472 -253.5988 -253.6876 -253.8271 -253.9513 -254.0749 -253.8922 -254.0007 -254.3483 -254.4111 -254.4616 -254.3785 -254.382 -254.1476 -254.058 -254.0599 -254.1058 -254.1356 -253.4958 -253.8084 -253.7455 -253.4762 -253.6163 -253.6962 -253.3849 -253.4121 -253.8373 -253.8877" "0 0.033445 0.06689 0.10033 0.13378 0.16722 0.20067 0.23411 0.26756 0.301 0.33445 0.36789 0.40134 0.43478 0.46823 0.50167 0.53512 0.56856 0.60201 0.63545 0.6689 0.70234 0.73579 0.76923 0.80268 0.83612 0.86957 0.90301 0.93645 0.9699 1.0033 1.0368 1.0702 1.1037 1.1371 1.1706 1.204 1.2375 1.2709 1.3043 1.3378 1.3712 1.4047 1.4381 1.4716 1.505 1.5385 1.5719 1.6054 1.6388 1.6722 1.7057 1.7391 1.7726 1.806 1.8395 1.8729 1.9064 1.9398 1.9732 2.0067 2.0401 2.0736 2.107 2.1405 2.1739 2.2074 2.2408 2.2742 2.3077 2.3411 2.3746 2.408 2.4415 2.4749 2.5084 2.5418 2.5753 2.6087 2.6421 2.6756 2.709 2.7425 2.7759 2.8094 2.8428 2.8763 2.9097 2.9431 2.9766 3.01 3.0435 3.0769 3.1104 3.1438 3.1773 3.2107 3.2441 3.2776 3.311 3.3445 3.3779 3.4114 3.4448 3.4783 3.5117 3.5452 3.5786 3.612 3.6455 3.6789 3.7124 3.7458 3.7793 3.8127 3.8462 3.8796 3.913 3.9465 3.9799 4.0134 4.0468 4.0803 4.1137 4.1472 4.1806 4.214 4.2475 4.2809 4.3144 4.3478 4.3813 4.4147 4.4482 4.4816 4.5151 4.5485 4.5819 4.6154 4.6488 4.6823 4.7157 4.7492 4.7826 4.8161 4.8495 4.8829 4.9164 4.9498 4.9833 5.0167 5.0502 5.0836 5.1171 5.1505 5.1839 5.2174 5.2508 5.2843 5.3177 5.3512 5.3846 5.4181 5.4515 5.4849 5.5184 5.5518 5.5853 5.6187 5.6522 5.6856 5.7191 5.7525 5.786 5.8194 5.8528 5.8863 5.9197 5.9532 5.9866 6.0201 6.0535 6.087 6.1204 6.1538 6.1873 6.2207 6.2542 6.2876 6.3211 6.3545 6.388 6.4214 6.4548 6.4883 6.5217 6.5552 6.5886 6.6221 6.6555 6.689 6.7224 6.7559 6.7893 6.8227 6.8562 6.8896 6.9231 6.9565 6.99 7.0234 7.0569 7.0903 7.1237 7.1572 7.1906 7.2241 7.2575 7.291 7.3244 7.3579 7.3913 7.4247 7.4582 7.4916 7.5251 7.5585 7.592 7.6254 7.6589 7.6923 7.7258 7.7592 7.7926 7.8261 7.8595 7.893 7.9264 7.9599 7.9933 8.0268 8.0602 8.0936 8.1271 8.1605 8.194 8.2274 8.2609 8.2943 8.3278 8.3612 8.3946 8.4281 8.4615 8.495 8.5284 8.5619 8.5953 8.6288 8.6622 8.6957 8.7291 8.7625 8.796 8.8294 8.8629 8.8963 8.9298 8.9632 8.9967 9.0301 9.0635 9.097 9.1304 9.1639 9.1973 9.2308 9.2642 9.2977 9.3311 9.3645 9.398 9.4314 9.4649 9.4983 9.5318 9.5652 9.5987 9.6321 9.6656 9.699 9.7324 9.7659 9.7993 9.8328 9.8662 9.8997 9.9331 9.9666 10"
103004 101 1 8 0 "-205.7713 -185.2594 -153.3862 -115.6854 -103.3841 -105.1299 -107.6721 -107.8428 -115.5332 -152.5895 -224.5124 -243.6436 -246.2951 -231.1357 -239.9806 -242.8581 -237.2771 -216.2126 -214.7801 -226.1531 -236.6853 -239.0117 -227.1489 -204.4407 -206.4936 -213.0261 -228.66 -248.2762 -252.9095 -253.3551 -253.359 -251.246 -246 -233.7276 -209.1138 -184.1604 -147.4826 -124.5096 -122.004 -117.8882 -143.1338 -211.2132 -247.3295 -252.7413 -253.0968 -253.8757 -251.1828 -242.8401 -221.66 -210.0653 -207.7699 -219.0602 -224.1533 -208.3088 -182.9082 -167.8937 -191.3213 -216.5331 -230.4789 -243.7488 -244.8577 -239.5066 -221.5924 -192.6164 -164.1322 -142.5916 -139.087 -143.543 -147.3368 -153.8804 -186.8142 -224.5622 -244.445 -252.1144 -252.637 -250.645 -245.6385 -238.6119 -225.8082 -196.2197 -175.4812 -161.0704 -166.4176 -180.7559 -191.4942 -214.7767 -235.6487 -246.9025 -249.6587 -249.6893 -246.3016 -230.0278 -198.4692 -173.7479 -167.4576 -165.8926 -158.6376 -154.8794 -153.1495 -181.5374 -207.966 -224.7818 -234.5249 -249.7313 -250.2755 -245.3117 -213.3234 -200.9933 -200.8131 -211.2226 -227.3639 -233.3681 -236.4 -229.1819 -232.6419 -246.2185 -252.5206 -239.1624 -220.3985 -203.1142 -184.924 -172.2534 -154.0406 -143.7717 -149.0611 -155.1783 -162.4892 -164.6535 -164.2304 -166.4328 -178.3461 -214.0481 -245.0857 -254.6786 -255.0001 -255.0001 -255.0001 -254.9957 -254.1526 -242.0526 -218.6894 -198.9855 -178.8967 -170.979 -179.3486 -203.1287 -226.9681 -244.0629 -249.2519 -248.8685 -244.2346 -231.5979 -200.5542 -178.4468 -178.1818 -177.778 -175.9038 -174.2075 -171.6274 -177.3342 -202.9755 -224.0154 -249.6018 -251.7502 -250.7513 -234.9576 -211.0658 -204.984 -203.6653 -204.4512 -216.2186 -223.5984 -235.0011 -243.1766 -251.5762 -239.3966 -241.8518 -243.1349 -241.887 -235.7827 -220.047 -209.7937 -199.484 -194.8847 -195.2759 -187.9138 -205.5036 -233.3759 -247.5982 -254.5795 -254.6705 -249.0653 -237.5017 -215.0637 -195.6392 -185.8444 -185.99 -192.5859 -201.5679 -220.769 -246.0994 -255.0001 -255.0001 -254.9961 -249.2993 -237.9429 -223.6759 -191.9746 -174.1519 -162.8969 -159.4513 -163.8702 -170.8686 -182.9172 -198.3368 -218.698 -234.948 -247.1783 -247.2761 -241.5729 -222.9774 -215.6249 -213.2935 -214.4784 -219.2802 -223.8119 -235.7053 -242.3415 -250.5059 -253.6253 -254.7289 -254.0659 -249.6105 -236.7103 -207.8891 -183.8929 -179.8756 -178.2517 -177.2639 -177.6142 -186.4368 -213.6806 -238.614 -252.5757 -254.9999 -254.189 -244.172 -229.162 -211.708 -206.6672 -205.7536 -210.7284 -217.6347 -228.0805 -238.2242 -242.8272 -250.095 -253.7088 -254.6275 -252.2852 -236.8172 -185.9026 -157.5465 -142.1409 -138.047 -138.6948 -139.3626 -149.3588 -176.9643 -206.3501 -231.6722 -244.5768 -250.8611 -252.9887 -252.4187 -246.4742 -235.7409 -212.5136 -200.2961 -200.8976 -215.884 -229.9571 -243.9874 -251.8837 -254.5192 -254.9427 -253.6371 -244.3491 -210.2547 -181.5018 -165.0435 -154.4279 -151.7766 -157.6236 -161.6874 -163.281 -180.0892 -213.9705 -237.8854 -251.3516" "0 0.033445 0.06689 0.10033 0.13378 0.16722 0.20067 0.23411 0.26756 0.301 0.33445 0.36789 0.40134 0.43478 0.46823 0.50167 0.53512 0.56856 0.60201 0.63545 0.6689 0.70234 0.73579 0.76923 0.80268 0.83612 0.86957 0.90301 0.93645 0.9699 1.0033 1.0368 1.0702 1.1037 1.1371 1.1706 1.204 1.2375 1.2709 1.3043 1.3378 1.3712 1.4047 1.4381 1.4716 1.505 1.5385 1.5719 1.6054 1.6388 1.6722 1.7057 1.7391 1.7726 1.806 1.8395 1.8729 1.9064 1.9398 1.9732 2.0067 2.0401 2.0736 2.107 2.1405 2.1739 2.2074 2.2408 2.2742 2.3077 2.3411 2.3746 2.408 2.4415 2.4749 2.5084 2.5418 2.5753 2.6087 2.6421 2.6756 2.709 2.7425 2.7759 2.8094 2.8428 2.8763 2.9097 2.9431 2.9766 3.01 3.0435 3.0769 3.1104 3.1438 3.1773 3.2107 3.2441 3.2776 3.311 3.3445 3.3779 3.4114 3.4448 3.4783 3.5117 3.5452 3.5786 3.612 3.6455 3.6789 3.7124 3.7458 3.7793 3.8127 3.8462 3.8796 3.913 3.9465 3.9799 4.0134 4.0468 4.0803 4.1137 4.1472 4.1806 4.214 4.2475 4.2809 4.3144 4.3478 4.3813 4.4147 4.4482 4.4816 4.5151 4.5485 4.5819 4.6154 4.6488 4.6823 4.7157 4.7492 4.7826 4.8161 4.8495 4.8829 4.9164 4.9498 4.9833 5.0167 5.0502 5.0836 5.1171 5.1505 5.1839 5.2174 5.2508 5.2843 5.3177 5.3512 5.3846 5.4181 5.4515 5.4849 5.5184 5.5518 5.5853 5.6187 5.6522 5.6856 5.7191 5.7525 5.786 5.8194 5.8528 5.8863 5.9197 5.9532 5.9866 6.0201 6.0535 6.087 6.1204 6.1538 6.1873 6.2207 6.2542 6.2876 6.3211 6.3545 6.388 6.4214 6.4548 6.4883 6.5217 6.5552 6.5886 6.6221 6.6555 6.689 6.7224 6.7559 6.7893 6.8227 6.8562 6.8896 6.9231 6.9565 6.99 7.0234 7.0569 7.0903 7.1237 7.1572 7.1906 7.2241 7.2575 7.291 7.3244 7.3579 7.3913 7.4247 7.4582 7.4916 7.5251 7.5585 7.592 7.6254 7.6589 7.6923 7.7258 7.7592 7.7926 7.8261 7.8595 7.893 7.9264 7.9599 7.9933 8.0268 8.0602 8.0936 8.1271 8.1605 8.194 8.2274 8.2609 8.2943 8.3278 8.3612 8.3946 8.4281 8.4615 8.495 8.5284 8.5619 8.5953 8.6288 8.6622 8.6957 8.7291 8.7625 8.796 8.8294 8.8629 8.8963 8.9298 8.9632 8.9967 9.0301 9.0635 9.097 9.1304 9.1639 9.1973 9.2308 9.2642 9.2977 9.3311 9.3645 9.398 9.4314 9.4649 9.4983 9.5318 9.5652 9.5987 9.6321 9.6656 9.699 9.7324 9.7659 9.7993 9.8328 9.8662 9.8997 9.9331 9.9666 10"
104001 108 1 0 1 "-251.96 -251.8208 -251.6365 -251.6042 -251.6006 -251.6655 -251.9862 -251.9068 -251.7312 -251.7806 -251.8636 -252.024 -252.0155 -251.987 -251.9763 -251.9868 -251.9471 -251.9509 -251.8804 -251.8659 -251.8799 -251.9556 -252.0273 -252.0996 -252.0393 -251.9885 -251.8766 -251.8839 -251.9128 -251.9602 -251.9996 -251.9292 -251.9292 -251.814 -251.7351 -251.6721 -251.6837 -251.7692 -251.5285 -251.6054 -251.773 -251.7247 -251.5666 -251.6089 -251.5936 -251.5969 -251.5776 -251.6657 -251.6539 -251.4016 -251.2726 -251.2027 -251.4043 -251.6166 -251.8065 -251.8154 -251.7548 -251.7198 -251.5108 -251.572 -251.6717 -251.714 -251.7171 -251.7591 -251.7225 -251.5562 -251.4521 -251.3875 -250.8719 -250.931 -251.0241 -251.4459 -251.769 -251.8195 -251.8495 -251.8835 -251.8284 -252.8763 -252.8456 -252.886 -251.4508 -251.2884 -251.157 -251.2851 -252.5817 -252.7296 -252.8843 -251.5307 -251.4839 -251.3184 -252.5058 -252.5738 -252.6279 -252.5124 -252.4938 -252.5304 -252.4895 -252.437 -252.1937 -252.1764 -252.1582 -252.3044 -252.3635 -252.3874 -252.2858 -252.0936 -252.1074 -252 -252.0703 -252.1365 -252.2092 -252.3726 -252.3942 -252.4372 -252.4337 -252.3887 -252.2863 -252.3415 -252.3161 -252.3654 -252.3297 -252.401 -252.3104 -252.276 -252.3341 -252.3627 -252.3878 -252.4599 -252.5267 -252.4471 -252.45 -252.4574 -252.4024 -252.3425 -252.2261 -252.2096 -252.0707 -252.1947 -252.3897 -252.3633 -252.4556 -252.3217 -252.0583 -252.1904 -252.2762 -252.3316 -252.3994 -252.4274 -252.5399 -252.4788 -252.1968 -252.0626 -252.0783 -252.1151 -252.2145 -252.3617 -252.5161 -252.523 -252.4323 -252.4119 -252.3347 -252.3254 -252.3761 -252.3662 -252.3135 -252.3656 -252.4533 -252.2601 -252.1402 -252.0602 -252.055 -252.0728 -252.2426 -252.3011 -252.3291 -252.2663 -252.297 -252.3705 -252.4216 -252.3705 -252.3266 -252.3011 -252.2788 -252.2634 -252.2017 -251.9932 -251.8843 -251.9738 -252.0785 -252.1726 -252.3017 -252.4693 -252.4745 -252.3825 -252.3532 -252.2314 -252.2758 -252.3122 -252.351 -252.3773 -252.4525 -252.3872 -252.2391 -252.2751 -252.2607 -252.324 -252.3559 -252.4679 -252.5142 -252.5568 -252.4951 -252.4 -252.4062 -252.2924 -252.3528 -252.3143 -252.3851 -252.4 -252.2959 -252.1378 -252.043 -252.1551 -252.2025 -252.2479 -252.3893 -252.4704 -252.3893 -252.3631 -252.319 -252.3332 -252.4012 -252.4241 -252.3685 -252.4228 -252.428 -252.2902 -252.0674 -252.0058 -252.0971 -252.2252 -252.2712 -252.3796 -252.3104 -252.3258 -252.2065 -252.1648 -252.157 -252.1058 -252.1188 -252.1504 -252.1613 -252.031 -251.856 -251.8231 -251.862 -251.9292 -251.9052 -252.1984 -252.0575 -251.8983 -251.7951 -251.846 -251.9019 -252.0106 -251.8667 -251.7902 -251.7516 -251.5739 -251.4554 -251.6014 -251.7419 -251.8109 -251.8682 -251.8359 -251.8651 -251.833 -251.7077 -251.9321 -251.8073 -251.877 -251.8611 -251.8847 -251.7603 -251.6002 -251.4978 -251.5903 -251.8456 -251.9174 -251.8427 -252.0283 -251.943 -251.6603 -251.6253 -251.8117 -251.9043 -251.9767 -251.9105 -251.703 -251.6379 -251.5399" "0 0.033445 0.06689 0.10033 0.13378 0.16722 0.20067 0.23411 0.26756 0.301 0.33445 0.36789 0.40134 0.43478 0.46823 0.50167 0.53512 0.56856 0.60201 0.63545 0.6689 0.70234 0.73579 0.76923 0.80268 0.83612 0.86957 0.90301 0.93645 0.9699 1.0033 1.0368 1.0702 1.1037 1.1371 1.1706 1.204 1.2375 1.2709 1.3043 1.3378 1.3712 1.4047 1.4381 1.4716 1.505 1.5385 1.5719 1.6054 1.6388 1.6722 1.7057 1.7391 1.7726 1.806 1.8395 1.8729 1.9064 1.9398 1.9732 2.0067 2.0401 2.0736 2.107 2.1405 2.1739 2.2074 2.2408 2.2742 2.3077 2.3411 2.3746 2.408 2.4415 2.4749 2.5084 2.5418 2.5753 2.6087 2.6421 2.6756 2.709 2.7425 2.7759 2.8094 2.8428 2.8763 2.9097 2.9431 2.9766 3.01 3.0435 3.0769 3.1104 3.1438 3.1773 3.2107 3.2441 3.2776 3.311 3.3445 3.3779 3.4114 3.4448 3.4783 3.5117 3.5452 3.5786 3.612 3.6455 3.6789 3.7124 3.7458 3.7793 3.8127 3.8462 3.8796 3.913 3.9465 3.9799 4.0134 4.0468 4.0803 4.1137 4.1472 4.1806 4.214 4.2475 4.2809 4.3144 4.3478 4.3813 4.4147 4.4482 4.4816 4.5151 4.5485 4.5819 4.6154 4.6488 4.6823 4.7157 4.7492 4.7826 4.8161 4.8495 4.8829 4.9164 4.9498 4.9833 5.0167 5.0502 5.0836 5.1171 5.1505 5.1839 5.2174 5.2508 5.2843 5.3177 5.3512 5.3846 5.4181 5.4515 5.4849 5.5184 5.5518 5.5853 5.6187 5.6522 5.6856 5.7191 5.7525 5.786 5.8194 5.8528 5.8863 5.9197 5.9532 5.9866 6.0201 6.0535 6.087 6.1204 6.1538 6.1873 6.2207 6.2542 6.2876 6.3211 6.3545 6.388 6.4214 6.4548 6.4883 6.5217 6.5552 6.5886 6.6221 6.6555 6.689 6.7224 6.7559 6.7893 6.8227 6.8562 6.8896 6.9231 6.9565 6.99 7.0234 7.0569 7.0903 7.1237 7.1572 7.1906 7.2241 7.2575 7.291 7.3244 7.3579 7.3913 7.4247 7.4582 7.4916 7.5251 7.5585 7.592 7.6254 7.6589 7.6923 7.7258 7.7592 7.7926 7.8261 7.8595 7.893 7.9264 7.9599 7.9933 8.0268 8.0602 8.0936 8.1271 8.1605 8.194 8.2274 8.2609 8.2943 8.3278 8.3612 8.3946 8.4281 8.4615 8.495 8.5284 8.5619 8.5953 8.6288 8.6622 8.6957 8.7291 8.7625 8.796 8.8294 8.8629 8.8963 8.9298 8.9632 8.9967 9.0301 9.0635 9.097 9.1304 9.1639 9.1973 9.2308 9.2642 9.2977 9.3311 9.3645 9.398 9.4314 9.4649 9.4983 9.5318 9.5652 9.5987 9.6321 9.6656 9.699 9.7324 9.7659 9.7993 9.8328 9.8662 9.8997 9.9331 9.9666 10"
104002 122 1 0 1 "-252.1532 -251.1197 -250.811 -250.6911 -250.7626 -250.8665 -251.102 -251.0641 -250.7498 -249.4752 -249.2452 -249.483 -250.844 -251.7643 -252.005 -252.2345 -251.9058 -250.0156 -249.7576 -249.8408 -251.314 -251.6313 -252.1566 -251.9083 -250.8331 -249.6377 -249.786 -250.795 -252.0988 -252.7394 -252.8814 -252.3882 -251.3838 -251.0725 -251.016 -250.9804 -251.0762 -251.164 -251.0387 -249.8475 -249.3926 -249.3052 -250.2421 -251.7684 -252.5738 -252.6935 -252.3042 -251.5577 -251.1738 -250.8838 -250.8285 -250.8035 -250.9028 -250.9354 -250.2113 -249.6107 -249.5714 -250.2306 -251.3422 -252.1392 -252.3917 -252.6616 -252.1516 -250.2994 -249.984 -249.9964 -251.2946 -251.5405 -252.0366 -252.0666 -250.9335 -250.6253 -250.5902 -250.9462 -251.8661 -252.0827 -252.5557 -252.5798 -251.8783 -251.7732 -251.7312 -251.7425 -251.8175 -251.9939 -251.9381 -251.6767 -251.0062 -250.9798 -251.3958 -252.0587 -252.402 -252.5342 -252.6811 -251.445 -251.357 -251.067 -251.0806 -251.1707 -251.1607 -251.3686 -251.1511 -251.0706 -250.9034 -250.8248 -251.209 -251.4762 -251.5849 -251.7784 -251.7974 -251.8481 -252.0957 -252.1846 -251.8679 -251.7374 -251.6955 -251.3387 -250.4056 -250.2201 -250.619 -251.1522 -251.47 -251.593 -251.6439 -251.7142 -251.774 -251.8287 -251.7552 -251.7856 -251.6906 -251.4459 -250.5138 -249.9422 -249.8462 -250.7386 -252.2473 -252.8837 -252.943 -251.681 -251.815 -251.6997 -251.5855 -251.628 -251.5961 -251.5069 -251.4452 -250.7998 -249.9403 -250.066 -250.4221 -250.5371 -250.8847 -250.9793 -250.8989 -250.7772 -250.5743 -250.4919 -250.4868 -250.4489 -250.5354 -250.5944 -249.9563 -249.5187 -249.798 -250.7544 -252.2496 -252.4467 -252.5084 -251.2506 -251.0972 -251 -250.9093 -250.9095 -250.9195 -251.4577 -251.428 -250.7954 -250.6905 -251.1478 -252.648 -253.0286 -253.1873 -252.1588 -251.5849 -251.4899 -251.2373 -251.0427 -250.6289 -250.4205 -250.1831 -249.3697 -248.7304 -249.0176 -249.818 -251.4301 -251.7057 -252.0948 -250.8377 -251.0421 -250.7206 -250.6025 -250.613 -250.6838 -250.6445 -250.1221 -249.191 -249.2166 -250.18 -252.4183 -253.0571 -253.3432 -252.3924 -252.5064 -251.8628 -251.8903 -251.8423 -251.6725 -251.4978 -250.7991 -249.5163 -249.4477 -249.9689 -251.8969 -252.3489 -252.8279 -252.6415 -251.7877 -252.099 -251.9951 -251.9306 -251.8725 -251.5156 -250.4963 -249.7007 -249.4016 -250.0219 -251.8007 -252.1867 -252.2005 -250.7425 -250.6145 -250.2832 -250.3092 -250.2862 -250.7012 -251.0477 -250.8004 -249.2206 -248.2431 -248.1863 -250.7194 -251.9039 -252.4691 -252.2887 -251.7194 -250.4646 -250.445 -250.0485 -250.041 -250.1284 -251.123 -249.9111 -249.5988 -249.5275 -250.5831 -251.6761 -251.9552 -252.1615 -252.2516 -251.8206 -251.6506 -251.4359 -251.421 -251.4226 -250.8646 -249.3816 -249.1175 -249.1776 -250.632 -251.4832 -252.2584 -252.3199 -252.5862 -252.2139 -251.4506 -251.2772 -251.2163 -251.3827 -251.0177 -249.4897 -249.1105 -249.0359 -250.172 -251.1948 -252.0046 -252.172 -252.2914 -251.5426 -251.3325 -250.9723 -250.7814" "0 0.033445 0.06689 0.10033 0.13378 0.16722 0.20067 0.23411 0.26756 0.301 0.33445 0.36789 0.40134 0.43478 0.46823 0.50167 0.53512 0.56856 0.60201 0.63545 0.6689 0.70234 0.73579 0.76923 0.80268 0.83612 0.86957 0.90301 0.93645 0.9699 1.0033 1.0368 1.0702 1.1037 1.1371 1.1706 1.204 1.2375 1.2709 1.3043 1.3378 1.3712 1.4047 1.4381 1.4716 1.505 1.5385 1.5719 1.6054 1.6388 1.6722 1.7057 1.7391 1.7726 1.806 1.8395 1.8729 1.9064 1.9398 1.9732 2.0067 2.0401 2.0736 2.107 2.1405 2.1739 2.2074 2.2408 2.2742 2.3077 2.3411 2.3746 2.408 2.4415 2.4749 2.5084 2.5418 2.5753 2.6087 2.6421 2.6756 2.709 2.7425 2.7759 2.8094 2.8428 2.8763 2.9097 2.9431 2.9766 3.01 3.0435 3.0769 3.1104 3.1438 3.1773 3.2107 3.2441 3.2776 3.311 3.3445 3.3779 3.4114 3.4448 3.4783 3.5117 3.5452 3.5786 3.612 3.6455 3.6789 3.7124 3.7458 3.7793 3.8127 3.8462 3.8796 3.913 3.9465 3.9799 4.0134 4.0468 4.0803 4.1137 4.1472 4.1806 4.214 4.2475 4.2809 4.3144 4.3478 4.3813 4.4147 4.4482 4.4816 4.5151 4.5485 4.5819 4.6154 4.6488 4.6823 4.7157 4.7492 4.7826 4.8161 4.8495 4.8829 4.9164 4.9498 4.9833 5.0167 5.0502 5.0836 5.1171 5.1505 5.1839 5.2174 5.2508 5.2843 5.3177 5.3512 5.3846 5.4181 5.4515 5.4849 5.5184 5.5518 5.5853 5.6187 5.6522 5.6856 5.7191 5.7525 5.786 5.8194 5.8528 5.8863 5.9197 5.9532 5.9866 6.0201 6.0535 6.087 6.1204 6.1538 6.1873 6.2207 6.2542 6.2876 6.3211 6.3545 6.388 6.4214 6.4548 6.4883 6.5217 6.5552 6.5886 6.6221 6.6555 6.689 6.7224 6.7559 6.7893 6.8227 6.8562 6.8896 6.9231 6.9565 6.99 7.0234 7.0569 7.0903 7.1237 7.1572 7.1906 7.2241 7.2575 7.291 7.3244 7.3579 7.3913 7.4247 7.4582 7.4916 7.5251 7.5585 7.592 7.6254 7.6589 7.6923 7.7258 7.7592 7.7926 7.8261 7.8595 7.893 7.9264 7.9599 7.9933 8.0268 8.0602 8.0936 8.1271 8.1605 8.194 8.2274 8.2609 8.2943 8.3278 8.3612 8.3946 8.4281 8.4615 8.495 8.5284 8.5619 8.5953 8.6288 8.6622 8.6957 8.7291 8.7625 8.796 8.8294 8.8629 8.8963 8.9298 8.9632 8.9967 9.0301 9.0635 9.097 9.1304 9.1639 9.1973 9.2308 9.2642 9.2977 9.3311 9.3645 9.398 9.4314 9.4649 9.4983 9.5318 9.5652 9.5987 9.6321 9.6656 9.699 9.7324 9.7659 9.7993 9.8328 9.8662 9.8997 9.9331 9.9666 10"
104003 115 1 0 1 "-250.7035 -250.7582 -250.7041 -250.4931 -250.3289 -250.3195 -250.3142 -250.3589 -250.3836 -250.3849 -250.231 -249.7323 -249.3133 -249.2854 -249.5756 -249.951 -250.477 -250.5471 -250.4366 -250.1731 -250.054 -249.9865 -250.0183 -250.0397 -250.2023 -250.2318 -250.2469 -250.1323 -249.8601 -249.9407 -250.0567 -250.3035 -250.7315 -250.8423 -250.2119 -250.0414 -248.2155 -248.1425 -248.3137 -250.1748 -250.4305 -250.5915 -248.8162 -248.3859 -248.1085 -249.9209 -250.3828 -251.0287 -250.9808 -251.0243 -248.9998 -248.8018 -248.7312 -250.4002 -250.5277 -250.7741 -249.1888 -249.0766 -248.754 -249.9186 -249.8481 -250.0723 -250.4219 -250.8377 -251.2198 -249.8285 -248.9511 -248.8164 -248.8993 -248.9684 -249.2604 -249.5655 -249.7993 -249.7178 -249.2672 -248.7674 -248.6704 -250.5163 -251.0902 -251.3632 -249.8376 -249.587 -248.8211 -248.8897 -248.8005 -249.0967 -249.2033 -249.4073 -249.5349 -249.4331 -248.9655 -248.7178 -248.7927 -250.8584 -251.421 -251.5115 -249.7591 -248.8115 -248.6574 -248.5791 -248.795 -248.9687 -250.8976 -251.0296 -251.1551 -249.2907 -248.9557 -248.7276 -249.031 -251.052 -251.6238 -251.8553 -249.9268 -249.0087 -248.8806 -248.9595 -249.2481 -249.571 -249.8056 -250.0641 -250.075 -249.7416 -249.404 -249.2052 -249.275 -250.1198 -252.1297 -252.2609 -252.2809 -249.4454 -249.8366 -249.9973 -250.5469 -250.8432 -251.1308 -250.854 -250.7298 -249.1399 -248.7131 -248.5998 -248.8451 -249.8195 -250.0586 -250.4001 -250.3712 -250.1311 -249.4779 -249.3997 -249.4295 -249.4957 -249.6657 -249.7043 -249.48 -249.0204 -248.601 -248.6485 -249.3361 -249.7384 -250.1704 -250.3048 -250.1701 -249.9493 -249.6874 -249.5514 -249.526 -249.625 -249.7315 -249.7009 -249.3805 -248.8746 -248.735 -248.757 -249.1552 -249.5666 -249.7757 -249.8323 -249.5896 -249.3105 -249.1418 -249.1647 -249.1349 -249.286 -249.3602 -249.3137 -248.8874 -248.4854 -248.588 -248.7142 -248.9616 -249.3524 -249.6311 -249.4388 -248.8443 -248.5457 -248.4402 -248.5263 -248.6334 -248.8468 -248.8521 -248.4709 -247.8938 -247.5954 -247.8151 -248.3161 -249.353 -249.5917 -249.7192 -249.5849 -248.5376 -248.4038 -248.3609 -248.4264 -248.4328 -248.4539 -248.1025 -247.1746 -246.7198 -246.9384 -247.8661 -248.8698 -249.0696 -249.0999 -248.8543 -248.5619 -248.5757 -248.7875 -248.9409 -249.2784 -249.711 -249.5822 -247.973 -247.6102 -247.6669 -248.1664 -249.1478 -249.5106 -249.4697 -249.1912 -247.9092 -247.8597 -247.7439 -247.8499 -247.9786 -248.3393 -248.0723 -247.1608 -246.6026 -246.6715 -247.2546 -248.337 -248.6445 -248.9873 -248.7714 -248.3598 -248.1907 -248.3088 -248.33 -248.4722 -248.6547 -248.6168 -248.0188 -247.5169 -247.3164 -247.5165 -248.4969 -248.8092 -249.2505 -249.1221 -248.844 -248.3459 -247.9625 -247.9328 -248.0197 -248.1504 -248.2695 -247.8396 -247.3343 -246.8633 -246.6986 -247.2533 -248.3892 -248.561 -248.4485 -248.0387 -247.9625 -248.1363 -248.4873 -248.6655 -248.9099 -248.8657 -248.3594 -247.5273 -247.2028 -247.3859 -248.4854 -249.1338 -249.2559 -249.245 -248.9822 -248.7756" "0 0.033445 0.06689 0.10033 0.13378 0.16722 0.20067 0.23411 0.26756 0.301 0.33445 0.36789 0.40134 0.43478 0.46823 0.50167 0.53512 0.56856 0.60201 0.63545 0.6689 0.70234 0.73579 0.76923 0.80268 0.83612 0.86957 0.90301 0.93645 0.9699 1.0033 1.0368 1.0702 1.1037 1.1371 1.1706 1.204 1.2375 1.2709 1.3043 1.3378 1.3712 1.4047 1.4381 1.4716 1.505 1.5385 1.5719 1.6054 1.6388 1.6722 1.7057 1.7391 1.7726 1.806 1.8395 1.8729 1.9064 1.9398 1.9732 2.0067 2.0401 2.0736 2.107 2.1405 2.1739 2.2074 2.2408 2.2742 2.3077 2.3411 2.3746 2.408 2.4415 2.4749 2.5084 2.5418 2.5753 2.6087 2.6421 2.6756 2.709 2.7425 2.7759 2.8094 2.8428 2.8763 2.9097 2.9431 2.9766 3.01 3.0435 3.0769 3.1104 3.1438 3.1773 3.2107 3.2441 3.2776 3.311 3.3445 3.3779 3.4114 3.4448 3.4783 3.5117 3.5452 3.5786 3.612 3.6455 3.6789 3.7124 3.7458 3.7793 3.8127 3.8462 3.8796 3.913 3.9465 3.9799 4.0134 4.0468 4.0803 4.1137 4.1472 4.1806 4.214 4.2475 4.2809 4.3144 4.3478 4.3813 4.4147 4.4482 4.4816 4.5151 4.5485 4.5819 4.6154 4.6488 4.6823 4.7157 4.7492 4.7826 4.8161 4.8495 4.8829 4.9164 4.9498 4.9833 5.0167 5.0502 5.0836 5.1171 5.1505 5.1839 5.2174 5.2508 5.2843 5.3177 5.3512 5.3846 5.4181 5.4515 5.4849 5.5184 5.5518 5.5853 5.6187 5.6522 5.6856 5.7191 5.7525 5.786 5.8194 5.8528 5.8863 5.9197 5.9532 5.9866 6.0201 6.0535 6.087 6.1204 6.1538 6.1873 6.2207 6.2542 6.2876 6.3211 6.3545 6.388 6.4214 6.4548 6.4883 6.5217 6.5552 6.5886 6.6221 6.6555 6.689 6.7224 6.7559 6.7893 6.8227 6.8562 6.8896 6.9231 6.9565 6.99 7.0234 7.0569 7.0903 7.1237 7.1572 7.1906 7.2241 7.2575 7.291 7.3244 7.3579 7.3913 7.4247 7.4582 7.4916 7.5251 7.5585 7.592 7.6254 7.6589 7.6923 7.7258 7.7592 7.7926 7.8261 7.8595 7.893 7.9264 7.9599 7.9933 8.0268 8.0602 8.0936 8.1271 8.1605 8.194 8.2274 8.2609 8.2943 8.3278 8.3612 8.3946 8.4281 8.4615 8.495 8.5284 8.5619 8.5953 8.6288 8.6622 8.6957 8.7291 8.7625 8.796 8.8294 8.8629 8.8963 8.9298 8.9632 8.9967 9.0301 9.0635 9.097 9.1304 9.1639 9.1973 9.2308 9.2642 9.2977 9.3311 9.3645 9.398 9.4314 9.4649 9.4983 9.5318 9.5652 9.5987 9.6321 9.6656 9.699 9.7324 9.7659 9.7993 9.8328 9.8662 9.8997 9.9331 9.9666 10"
104004 117 1 8 0 "-194.2783 -211.7922 -221.093 -244.125 -250.3077 -248.8878 -246.3699 -233.1922 -228.0384 -218.6154 -208.4538 -198.2541 -197.7862 -203.9943 -207.9182 -204.9752 -192.5219 -185.5782 -182.079 -176.5121 -173.2631 -169.8596 -163.8351 -160.61 -160.9543 -165.4744 -172.4987 -179.1134 -188.3204 -197.1969 -223.0485 -238.4907 -244.5649 -241.5923 -232.8134 -231.9686 -217.0801 -202.6049 -193.7216 -192.3624 -201.7104 -210.8876 -212.3399 -208.1035 -201.7361 -197.3901 -190.9769 -187.0679 -178.0766 -165.2359 -154.6486 -149.8995 -147.5798 -152.2381 -151.7911 -150.6386 -163.5755 -180.6637 -202.6021 -215.4107 -220.0727 -226.5834 -225.3446 -217.2165 -206.4099 -197.0672 -202.3283 -218.006 -224.3802 -219.9502 -207.6387 -199.1223 -182.8744 -172.9661 -161.578 -152.9136 -145.062 -142.3414 -150.174 -158.0748 -169.1189 -184.948 -193.5696 -204.3088 -207.3649 -201.7961 -197.4939 -193.1576 -193.4098 -187.9808 -189.3805 -202.3602 -217.5849 -220.356 -214.0832 -205.8152 -190.8762 -177.1251 -167.9889 -159.97 -150.9033 -147.0872 -145.4293 -144.658 -148.5292 -150.7412 -156.3423 -164.2351 -177.0542 -204.6078 -228.8516 -248.7914 -249.9066 -239.5263 -234.9305 -225.4083 -217.7546 -209.0871 -208.6011 -216.3281 -218.3382 -208.8054 -197.7862 -182.8247 -181.117 -176.7569 -171.4193 -166.0936 -160.0977 -154.8898 -159.042 -164.9486 -171.2164 -178.3439 -185.0383 -194.3555 -198.2317 -199.8964 -200.6212 -201.2836 -201.1429 -199.9904 -199.9495 -198.1892 -212.1318 -232.9902 -241.6157 -241.3873 -229.9897 -226.6025 -225.837 -233.0631 -229.3254 -221.2648 -214.3514 -211.2937 -207.8257 -202.6283 -196.4194 -182.9047 -169.8686 -161.6557 -155.5196 -149.7404 -146.7822 -144.0956 -149.2578 -154.5701 -161.0608 -171.9496 -176.0474 -186.2013 -194.8308 -211.7911 -230.2405 -241.7917 -241.7355 -234.5933 -221.7317 -225.9371 -224.9565 -221.3639 -204.2298 -194.1666 -189.2009 -200.8158 -215.6606 -222.4296 -214.9544 -204.727 -191.7717 -178.1836 -168.9514 -157.3674 -155.0125 -157.1119 -158.9653 -162.8539 -168.3671 -176.5589 -182.4661 -195.7177 -214.0406 -226.2418 -236.3199 -236.8754 -231.7505 -219.8852 -222.5615 -223.2494 -227.8895 -218.5721 -205.2144 -203.8554 -207.6947 -213.6412 -208.064 -196.3759 -185.2794 -177.3222 -170.0038 -165.7735 -164.3552 -165.9761 -172.1138 -178.0144 -187.9944 -197.1607 -203.0723 -207.0574 -211.5941 -222.1642 -241.6011 -247.2554 -242.6793 -237.2335 -230.1894 -225.4604 -215.6434 -215.9567 -214.9703 -221.7084 -221.0155 -212.6293 -195.5576 -171.5121 -151.3704 -136.5359 -132.8468 -132.1684 -140.222 -144.1697 -154.8136 -166.5644 -178.9482 -194.8542 -214.0306 -215.3335 -205.2072 -195.2933 -178.6783 -170.5862 -160.4626 -158.4669 -152.0093 -149.0646 -166.9079 -182.5521 -178.1578 -176.8802 -186.2162 -196.8928 -207.8286 -215.0847 -217.641 -213.287 -206.9596 -204.2599 -195.7669 -191.3197 -191.2016 -199.5915 -208.8205 -224.1016 -230.6405 -231.2741 -249.5028 -239.7844 -218.5089 -209.5381 -226.2617 -243.4943 -248.2211 -242.2407 -231.3665 -223.0632 -212.69 -196.731 -185.0577 -190.0739" "0 0.033445 0.06689 0.10033 0.13378 0.16722 0.20067 0.23411 0.26756 0.301 0.33445 0.36789 0.40134 0.43478 0.46823 0.50167 0.53512 0.56856 0.60201 0.63545 0.6689 0.70234 0.73579 0.76923 0.80268 0.83612 0.86957 0.90301 0.93645 0.9699 1.0033 1.0368 1.0702 1.1037 1.1371 1.1706 1.204 1.2375 1.2709 1.3043 1.3378 1.3712 1.4047 1.4381 1.4716 1.505 1.5385 1.5719 1.6054 1.6388 1.6722 1.7057 1.7391 1.7726 1.806 1.8395 1.8729 1.9064 1.9398 1.9732 2.0067 2.0401 2.0736 2.107 2.1405 2.1739 2.2074 2.2408 2.2742 2.3077 2.3411 2.3746 2.408 2.4415 2.4749 2.5084 2.5418 2.5753 2.6087 2.6421 2.6756 2.709 2.7425 2.7759 2.8094 2.8428 2.8763 2.9097 2.9431 2.9766 3.01 3.0435 3.0769 3.1104 3.1438 3.1773 3.2107 3.2441 3.2776 3.311 3.3445 3.3779 3.4114 3.4448 3.4783 3.5117 3.5452 3.5786 3.612 3.6455 3.6789 3.7124 3.7458 3.7793 3.8127 3.8462 3.8796 3.913 3.9465 3.9799 4.0134 4.0468 4.0803 4.1137 4.1472 4.1806 4.214 4.2475 4.2809 4.3144 4.3478 4.3813 4.4147 4.4482 4.4816 4.5151 4.5485 4.5819 4.6154 4.6488 4.6823 4.7157 4.7492 4.7826 4.8161 4.8495 4.8829 4.9164 4.9498 4.9833 5.0167 5.0502 5.0836 5.1171 5.1505 5.1839 5.2174 5.2508 5.2843 5.3177 5.3512 5.3846 5.4181 5.4515 5.4849 5.5184 5.5518 5.5853 5.6187 5.6522 5.6856 5.7191 5.7525 5.786 5.8194 5.8528 5.8863 5.9197 5.9532 5.9866 6.0201 6.0535 6.087 6.1204 6.1538 6.1873 6.2207 6.2542 6.2876 6.3211 6.3545 6.388 6.4214 6.4548 6.4883 6.5217 6.5552 6.5886 6.6221 6.6555 6.689 6.7224 6.7559 6.7893 6.8227 6.8562 6.8896 6.9231 6.9565 6.99 7.0234 7.0569 7.0903 7.1237 7.1572 7.1906 7.2241 7.2575 7.291 7.3244 7.3579 7.3913 7.4247 7.4582 7.4916 7.5251 7.5585 7.592 7.6254 7.6589 7.6923 7.7258 7.7592 7.7926 7.8261 7.8595 7.893 7.9264 7.9599 7.9933 8.0268 8.0602 8.0936 8.1271 8.1605 8.194 8.2274 8.2609 8.2943 8.3278 8.3612 8.3946 8.4281 8.4615 8.495 8.5284 8.5619 8.5953 8.6288 8.6622 8.6957 8.7291 8.7625 8.796 8.8294 8.8629 8.8963 8.9298 8.9632 8.9967 9.0301 9.0635 9.097 9.1304 9.1639 9.1973 9.2308 9.2642 9.2977 9.3311 9.3645 9.398 9.4314 9.4649 9.4983 9.5318 9.5652 9.5987 9.6321 9.6656 9.699 9.7324 9.7659 9.7993 9.8328 9.8662 9.8997 9.9331 9.9666 10"
105001 86 1 0 1 "-254.1104 -254.0911 -254.0861 -254.0785 -254.0924 -254.0948 -254.0842 -254.0623 -254.067 -254.0747 -254.099 -254.107 -254.1094 -254.1356 -254.1522 -254.1522 -254.1488 -254.1395 -254.1027 -254.0475 -254.0206 -253.9678 -253.9733 -253.9731 -253.9741 -253.9812 -253.982 -253.9869 -253.9881 -253.9802 -253.9741 -254.0129 -254.0204 -254.0424 -254.0763 -254.068 -254.0168 -253.9721 -253.9589 -253.9475 -253.931 -253.9333 -253.9438 -253.9511 -253.9558 -253.9444 -253.9215 -253.9497 -253.9959 -254.085 -254.1772 -254.2149 -254.2354 -254.2449 -254.2399 -254.1859 -254.1526 -254.1354 -254.1378 -254.1435 -254.1585 -254.2293 -254.2815 -254.2573 -254.2523 -254.2308 -254.1995 -254.2017 -254.1612 -254.1535 -254.1466 -254.1591 -254.1654 -254.1455 -254.1336 -254.0901 -254.0694 -254.0848 -254.1053 -254.1165 -254.1358 -254.1242 -254.1169 -254.1118 -254.0934 -254.1047 -254.1177 -254.1616 -254.1583 -254.1695 -254.1695 -254.1622 -254.1595 -254.1431 -254.1216 -254.1025 -254.0479 -253.9763 -253.906 -253.8637 -253.8255 -253.8189 -253.8434 -253.8527 -253.8218 -253.8305 -253.8275 -253.8285 -253.8254 -253.7878 -253.7738 -253.7465 -253.7383 -253.7626 -253.7644 -253.7841 -253.8153 -253.8271 -253.8187 -253.7756 -253.7628 -253.7503 -253.6923 -253.6793 -253.6858 -253.7173 -253.7363 -253.7575 -253.7343 -253.797 -253.8326 -253.856 -253.8666 -253.8584 -253.8851 -253.8887 -253.9268 -253.9286 -253.965 -253.9635 -253.9709 -253.9288 -253.8849 -253.8246 -253.7703 -253.7815 -253.7998 -253.8468 -253.8566 -253.8521 -253.8305 -253.848 -253.855 -253.8633 -253.8995 -253.9064 -253.9469 -253.9349 -253.965 -253.9711 -253.9861 -254.0079 -254.017 -254.0219 -253.9961 -253.977 -253.9477 -253.9658 -253.9833 -254.0034 -254.0379 -254.0292 -254.0446 -254.0326 -254.0903 -254.0897 -254.1092 -254.1151 -254.1313 -254.1634 -254.1599 -254.1877 -254.1713 -254.1934 -254.1001 -254.0802 -253.9881 -253.9546 -253.9237 -253.9121 -253.9101 -253.8908 -253.9099 -253.9042 -253.8969 -253.8932 -253.9137 -253.9477 -253.928 -253.9101 -253.9491 -253.9731 -253.9835 -254.0095 -254.0416 -254.0416 -254.0219 -253.9554 -253.9255 -253.9377 -253.9259 -253.9568 -253.9237 -253.9174 -253.9365 -253.9221 -253.9184 -253.8979 -253.9123 -253.9308 -253.9668 -253.9957 -253.9967 -254.0172 -254.0209 -254.0391 -254.0659 -254.0255 -253.9957 -253.991 -253.9977 -253.995 -254.0111 -254.0125 -254.0298 -254.0267 -253.9997 -254.0085 -254.0081 -254.0188 -254.0103 -254.0249 -254.0101 -254.0219 -254.0335 -254.0113 -254.0087 -253.9839 -253.9345 -253.8783 -253.8708 -253.8429 -253.8413 -253.812 -253.8246 -253.7886 -253.7965 -253.7992 -253.7906 -253.8096 -253.8149 -253.8411 -253.8263 -253.835 -253.8 -253.7837 -253.7733 -253.7689 -253.7703 -253.7467 -253.6933 -253.6699 -253.6768 -253.6898 -253.7145 -253.7285 -253.7239 -253.6996 -253.6817 -253.6978 -253.7241 -253.7292 -253.7355 -253.7149 -253.7253 -253.7385 -253.7434 -253.7607 -253.7959 -253.7925 -253.7577 -253.7094 -253.674 -253.6572 -253.6283 -253.6344 -253.6409 -253.6436 -253.6238 -253.6373" "0 0.033445 0.06689 0.10033 0.13378 0.16722 0.20067 0.23411 0.26756 0.301 0.33445 0.36789 0.40134 0.43478 0.46823 0.50167 0.53512 0.56856 0.60201 0.63545 0.6689 0.70234 0.73579 0.76923 0.80268 0.83612 0.86957 0.90301 0.93645 0.9699 1.0033 1.0368 1.0702 1.1037 1.1371 1.1706 1.204 1.2375 1.2709 1.3043 1.3378 1.3712 1.4047 1.4381 1.4716 1.505 1.5385 1.5719 1.6054 1.6388 1.6722 1.7057 1.7391 1.7726 1.806 1.8395 1.8729 1.9064 1.9398 1.9732 2.0067 2.0401 2.0736 2.107 2.1405 2.1739 2.2074 2.2408 2.2742 2.3077 2.3411 2.3746 2.408 2.4415 2.4749 2.5084 2.5418 2.5753 2.6087 2.6421 2.6756 2.709 2.7425 2.7759 2.8094 2.8428 2.8763 2.9097 2.9431 2.9766 3.01 3.0435 3.0769 3.1104 3.1438 3.1773 3.2107 3.2441 3.2776 3.311 3.3445 3.3779 3.4114 3.4448 3.4783 3.5117 3.5452 3.5786 3.612 3.6455 3.6789 3.7124 3.7458 3.7793 3.8127 3.8462 3.8796 3.913 3.9465 3.9799 4.0134 4.0468 4.0803 4.1137 4.1472 4.1806 4.214 4.2475 4.2809 4.3144 4.3478 4.3813 4.4147 4.4482 4.4816 4.5151 4.5485 4.5819 4.6154 4.6488 4.6823 4.7157 4.7492 4.7826 4.8161 4.8495 4.8829 4.9164 4.9498 4.9833 5.0167 5.0502 5.0836 5.1171 5.1505 5.1839 5.2174 5.2508 5.2843 5.3177 5.3512 5.3846 5.4181 5.4515 5.4849 5.5184 5.5518 5.5853 5.6187 5.6522 5.6856 5.7191 5.7525 5.786 5.8194 5.8528 5.8863 5.9197 5.9532 5.9866 6.0201 6.0535 6.087 6.1204 6.1538 6.1873 6.2207 6.2542 6.2876 6.3211 6.3545 6.388 6.4214 6.4548 6.4883 6.5217 6.5552 6.5886 6.6221 6.6555 6.689 6.7224 6.7559 6.7893 6.8227 6.8562 6.8896 6.9231 6.9565 6.99 7.0234 7.0569 7.0903 7.1237 7.1572 7.1906 7.2241 7.2575 7.291 7.3244 7.3579 7.3913 7.4247 7.4582 7.4916 7.5251 7.5585 7.592 7.6254 7.6589 7.6923 7.7258 7.7592 7.7926 7.8261 7.8595 7.893 7.9264 7.9599 7.9933 8.0268 8.0602 8.0936 8.1271 8.1605 8.194 8.2274 8.2609 8.2943 8.3278 8.3612 8.3946 8.4281 8.4615 8.495 8.5284 8.5619 8.5953 8.6288 8.6622 8.6957 8.7291 8.7625 8.796 8.8294 8.8629 8.8963 8.9298 8.9632 8.9967 9.0301 9.0635 9.097 9.1304 9.1639 9.1973 9.2308 9.2642 9.2977 9.3311 9.3645 9.398 9.4314 9.4649 9.4983 9.5318 9.5652 9.5987 9.6321 9.6656 9.699 9.7324 9.7659 9.7993 9.8328 9.8662 9.8997 9.9331 9.9666 10"
105002 91 1 0 1 "-253.4662 -253.4992 -253.5057 -253.5521 -253.5608 -253.5268 -253.5294 -253.5278 -253.5665 -253.6069 -253.701 -253.7002 -253.7255 -253.7788 -253.8305 -253.8785 -253.9257 -253.8489 -253.6793 -253.6059 -253.5537 -253.5945 -253.5879 -253.6185 -253.6248 -253.6342 -253.6418 -253.6318 -253.6458 -253.6627 -253.7208 -253.7402 -253.729 -253.7737 -253.8411 -253.8521 -253.8922 -253.8364 -253.7002 -253.6312 -253.612 -253.6611 -253.6846 -253.6845 -253.7094 -253.6856 -253.6815 -253.6903 -253.6937 -253.7011 -253.7422 -253.798 -253.7927 -253.8136 -253.8525 -253.896 -253.9038 -253.8195 -253.6234 -253.5712 -253.5219 -253.5818 -253.6116 -253.6116 -253.6034 -253.5778 -253.5773 -253.5802 -253.6159 -253.6395 -253.6568 -253.6615 -253.6507 -253.7159 -253.7336 -253.7298 -253.6197 -253.4229 -253.2977 -253.2995 -253.2891 -253.3467 -253.3806 -253.3729 -253.4006 -253.398 -253.4196 -253.4198 -253.4568 -253.4798 -253.5166 -253.5763 -253.6202 -253.656 -253.676 -253.5843 -253.3857 -253.2846 -253.2278 -253.2138 -253.3945 -253.4 -253.4619 -253.4553 -253.4443 -253.5482 -253.5653 -253.5298 -253.5451 -253.5631 -253.6617 -253.7603 -253.8566 -253.8692 -253.7778 -253.7121 -253.6532 -253.6825 -253.613 -253.4815 -253.3396 -253.1793 -253.0671 -253.0008 -253.0229 -252.9995 -253.0489 -253.1023 -253.1402 -253.1521 -253.1494 -253.1013 -253.0487 -252.8771 -252.7049 -252.6881 -252.67 -252.8495 -252.9221 -252.9528 -252.9669 -252.9561 -252.9891 -253.0061 -253.0687 -253.1273 -253.2085 -253.2572 -253.3056 -253.3494 -253.3782 -253.4143 -253.3747 -253.2433 -253.0798 -253.0339 -253.0943 -253.1467 -253.1662 -253.2261 -253.2376 -253.2222 -253.2044 -253.2003 -253.2496 -253.293 -253.3688 -253.4341 -253.469 -253.5427 -253.5545 -253.5812 -253.4996 -253.3912 -253.2772 -253.2531 -253.2157 -253.2776 -253.3559 -253.3861 -253.3896 -253.3675 -253.3389 -253.313 -253.283 -253.2815 -253.351 -253.3955 -253.4192 -253.4629 -253.4909 -253.5625 -253.4707 -253.3199 -253.2423 -253.2134 -253.2558 -253.2938 -253.3747 -253.3884 -253.3859 -253.4825 -253.5372 -253.5724 -253.6467 -253.7263 -253.7471 -253.7731 -253.8022 -253.8271 -253.8082 -253.8189 -253.7874 -253.6391 -253.34 -253.2643 -253.2895 -253.3571 -253.3855 -253.4168 -253.4272 -253.3845 -253.4259 -253.458 -253.4841 -253.4772 -253.5111 -253.5694 -253.5988 -253.6034 -253.5794 -253.5943 -253.5592 -253.4594 -253.3159 -253.2588 -253.3163 -253.3886 -253.3679 -253.4119 -253.3823 -253.3616 -253.2962 -253.2682 -253.2386 -253.2296 -253.219 -253.2825 -253.3345 -253.3761 -253.4139 -253.4168 -253.4596 -253.4323 -253.2703 -253.1291 -253.0778 -253.0708 -253.1631 -253.2065 -253.2731 -253.3355 -253.3663 -253.3598 -253.2891 -253.3655 -253.4084 -253.4515 -253.4733 -253.5023 -253.5217 -253.6043 -253.6257 -253.5671 -253.3765 -253.1686 -253.0618 -253.0655 -253.1341 -253.1519 -253.2124 -253.2136 -253.2108 -253.1819 -253.149 -253.1652 -253.1885 -253.2641 -253.3099 -253.3524 -253.3749 -253.408 -253.3869 -253.16 -253.0327 -253.0108 -253.0776 -253.14 -253.1594 -253.1915" "0 0.033445 0.06689 0.10033 0.13378 0.16722 0.20067 0.23411 0.26756 0.301 0.33445 0.36789 0.40134 0.43478 0.46823 0.50167 0.53512 0.56856 0.60201 0.63545 0.6689 0.70234 0.73579 0.76923 0.80268 0.83612 0.86957 0.90301 0.93645 0.9699 1.0033 1.0368 1.0702 1.1037 1.1371 1.1706 1.204 1.2375 1.2709 1.3043 1.3378 1.3712 1.4047 1.4381 1.4716 1.505 1.5385 1.5719 1.6054 1.6388 1.6722 1.7057 1.7391 1.7726 1.806 1.8395 1.8729 1.9064 1.9398 1.9732 2.0067 2.0401 2.0736 2.107 2.1405 2.1739 2.2074 2.2408 2.2742 2.3077 2.3411 2.3746 2.408 2.4415 2.4749 2.5084 2.5418 2.5753 2.6087 2.6421 2.6756 2.709 2.7425 2.7759 2.8094 2.8428 2.8763 2.9097 2.9431 2.9766 3.01 3.0435 3.0769 3.1104 3.1438 3.1773 3.2107 3.2441 3.2776 3.311 3.3445 3.3779 3.4114 3.4448 3.4783 3.5117 3.5452 3.5786 3.612 3.6455 3.6789 3.7124 3.7458 3.7793 3.8127 3.8462 3.8796 3.913 3.9465 3.9799 4.0134 4.0468 4.0803 4.1137 4.1472 4.1806 4.214 4.2475 4.2809 4.3144 4.3478 4.3813 4.4147 4.4482 4.4816 4.5151 4.5485 4.5819 4.6154 4.6488 4.6823 4.7157 4.7492 4.7826 4.8161 4.8495 4.8829 4.9164 4.9498 4.9833 5.0167 5.0502 5.0836 5.1171 5.1505 5.1839 5.2174 5.2508 5.2843 5.3177 5.3512 5.3846 5.4181 5.4515 5.4849 5.5184 5.5518 5.5853 5.6187 5.6522 5.6856 5.7191 5.7525 5.786 5.8194 5.8528 5.8863 5.9197 5.9532 5.9866 6.0201 6.0535 6.087 6.1204 6.1538 6.1873 6.2207 6.2542 6.2876 6.3211 6.3545 6.388 6.4214 6.4548 6.4883 6.5217 6.5552 6.5886 6.6221 6.6555 6.689 6.7224 6.7559 6.7893 6.8227 6.8562 6.8896 6.9231 6.9565 6.99 7.0234 7.0569 7.0903 7.1237 7.1572 7.1906 7.2241 7.2575 7.291 7.3244 7.3579 7.3913 7.4247 7.4582 7.4916 7.5251 7.5585 7.592 7.6254 7.6589 7.6923 7.7258 7.7592 7.7926 7.8261 7.8595 7.893 7.9264 7.9599 7.9933 8.0268 8.0602 8.0936 8.1271 8.1605 8.194 8.2274 8.2609 8.2943 8.3278 8.3612 8.3946 8.4281 8.4615 8.495 8.5284 8.5619 8.5953 8.6288 8.6622 8.6957 8.7291 8.7625 8.796 8.8294 8.8629 8.8963 8.9298 8.9632 8.9967 9.0301 9.0635 9.097 9.1304 9.1639 9.1973 9.2308 9.2642 9.2977 9.3311 9.3645 9.398 9.4314 9.4649 9.4983 9.5318 9.5652 9.5987 9.6321 9.6656 9.699 9.7324 9.7659 9.7993 9.8328 9.8662 9.8997 9.9331 9.9666 10"
105003 81 1 0 1 "-253.7919 -253.7911 -253.7933 -253.8226 -253.8157 -253.8454 -253.8678 -253.8863 -253.8908 -253.8771 -253.9023 -253.8834 -253.9026 -253.9068 -253.9021 -253.9206 -253.9241 -253.8928 -253.8301 -253.7943 -253.712 -253.754 -253.7685 -253.7892 -253.7959 -253.7864 -253.7762 -253.763 -253.802 -253.8246 -253.8411 -253.8491 -253.8531 -253.8218 -253.8301 -253.8495 -253.7851 -253.7218 -253.7214 -253.7532 -253.7697 -253.7662 -253.7338 -253.7108 -253.6874 -253.7125 -253.6958 -253.7066 -253.733 -253.7524 -253.7758 -253.7978 -253.7864 -253.7947 -253.8049 -253.8155 -253.7538 -253.7017 -253.654 -253.697 -253.6762 -253.6746 -253.6752 -253.6701 -253.6819 -253.6776 -253.6843 -253.6837 -253.7004 -253.7251 -253.7509 -253.775 -253.789 -253.8379 -253.8661 -253.8413 -253.7715 -253.719 -253.6534 -253.6269 -253.5826 -253.5782 -253.6185 -253.6322 -253.6204 -253.6051 -253.6093 -253.589 -253.5604 -253.5345 -253.487 -253.5129 -253.4639 -253.4851 -253.5386 -253.5604 -253.5641 -253.4686 -253.3389 -253.2498 -253.1956 -253.1889 -253.2433 -253.256 -253.2801 -253.3314 -253.3902 -253.3992 -253.459 -253.4637 -253.5496 -253.5884 -253.5924 -253.6108 -253.5947 -253.6106 -253.6098 -253.6308 -253.6615 -253.6369 -253.5102 -253.5298 -253.5502 -253.5802 -253.6175 -253.6446 -253.6715 -253.6721 -253.6448 -253.6601 -253.6719 -253.6811 -253.7324 -253.7571 -253.7656 -253.7774 -253.8053 -253.821 -253.8291 -253.867 -253.9028 -253.9101 -253.9143 -253.8861 -253.8686 -253.8354 -253.8562 -253.8763 -253.8997 -253.9064 -253.9007 -253.8912 -253.881 -253.8769 -253.8842 -253.9103 -253.8914 -253.9247 -253.9438 -253.9627 -253.9841 -253.9967 -254.0278 -254.0578 -254.0554 -254.059 -254.0544 -253.9562 -253.8794 -253.8592 -253.8462 -253.8814 -253.892 -253.9109 -253.8985 -253.8613 -253.8582 -253.8554 -253.8794 -253.8826 -253.9103 -253.9255 -253.9772 -253.9829 -253.9889 -253.9867 -253.9829 -254.0103 -253.9942 -254.033 -253.9503 -253.8883 -253.87 -253.8932 -253.896 -253.9021 -253.9048 -253.9072 -253.8981 -253.9139 -253.9107 -253.9259 -253.9479 -253.9627 -254.0001 -254.0298 -254.0361 -254.0448 -254.043 -254.1001 -254.1354 -254.1382 -254.0038 -253.837 -253.7685 -253.741 -253.7473 -253.7546 -253.7945 -253.8234 -253.8116 -253.79 -253.7799 -253.8096 -253.8362 -253.8606 -253.8871 -253.9272 -253.9339 -253.9717 -253.9778 -254.0015 -253.9902 -254.019 -253.9678 -253.8786 -253.8116 -253.8027 -253.8397 -253.8299 -253.8783 -253.8714 -253.8749 -253.8737 -253.8727 -253.8802 -253.8851 -253.8899 -253.9143 -253.9491 -253.9894 -254.0135 -254.0068 -254.0081 -254.0164 -254.0099 -253.9379 -253.8678 -253.8419 -253.8501 -253.8726 -253.8572 -253.87 -253.8611 -253.8368 -253.8254 -253.8252 -253.834 -253.8478 -253.8877 -253.9021 -253.957 -253.9729 -253.9804 -254.0223 -254.0326 -254.0767 -253.9991 -253.9204 -253.8727 -253.9247 -253.9475 -253.9532 -253.9812 -253.9579 -253.9479 -253.9603 -253.9204 -253.8828 -253.9068 -253.9237 -253.9416 -253.9579 -254.0018 -254.0406 -254.0446 -254.0505 -254.0373 -253.9916 -253.8893" "0 0.033445 0.06689 0.10033 0.13378 0.16722 0.20067 0.23411 0.26756 0.301 0.33445 0.36789 0.40134 0.43478 0.46823 0.50167 0.53512 0.56856 0.60201 0.63545 0.6689 0.70234 0.73579 0.76923 0.80268 0.83612 0.86957 0.90301 0.93645 0.9699 1.0033 1.0368 1.0702 1.1037 1.1371 1.1706 1.204 1.2375 1.2709 1.3043 1.3378 1.3712 1.4047 1.4381 1.4716 1.505 1.5385 1.5719 1.6054 1.6388 1.6722 1.7057 1.7391 1.7726 1.806 1.8395 1.8729 1.9064 1.9398 1.9732 2.0067 2.0401 2.0736 2.107 2.1405 2.1739 2.2074 2.2408 2.2742 2.3077 2.3411 2.3746 2.408 2.4415 2.4749 2.5084 2.5418 2.5753 2.6087 2.6421 2.6756 2.709 2.7425 2.7759 2.8094 2.8428 2.8763 2.9097 2.9431 2.9766 3.01 3.0435 3.0769 3.1104 3.1438 3.1773 3.2107 3.2441 3.2776 3.311 3.3445 3.3779 3.4114 3.4448 3.4783 3.5117 3.5452 3.5786 3.612 3.6455 3.6789 3.7124 3.7458 3.7793 3.8127 3.8462 3.8796 3.913 3.9465 3.9799 4.0134 4.0468 4.0803 4.1137 4.1472 4.1806 4.214 4.2475 4.2809 4.3144 4.3478 4.3813 4.4147 4.4482 4.4816 4.5151 4.5485 4.5819 4.6154 4.6488 4.6823 4.7157 4.7492 4.7826 4.8161 4.8495 4.8829 4.9164 4.9498 4.9833 5.0167 5.0502 5.0836 5.1171 5.1505 5.1839 5.2174 5.2508 5.2843 5.3177 5.3512 5.3846 5.4181 5.4515 5.4849 5.5184 5.5518 5.5853 5.6187 5.6522 5.6856 5.7191 5.7525 5.786 5.8194 5.8528 5.8863 5.9197 5.9532 5.9866 6.0201 6.0535 6.087 6.1204 6.1538 6.1873 6.2207 6.2542 6.2876 6.3211 6.3545 6.388 6.4214 6.4548 6.4883 6.5217 6.5552 6.5886 6.6221 6.6555 6.689 6.7224 6.7559 6.7893 6.8227 6.8562 6.8896 6.9231 6.9565 6.99 7.0234 7.0569 7.0903 7.1237 7.1572 7.1906 7.2241 7.2575 7.291 7.3244 7.3579 7.3913 7.4247 7.4582 7.4916 7.5251 7.5585 7.592 7.6254 7.6589 7.6923 7.7258 7.7592 7.7926 7.8261 7.8595 7.893 7.9264 7.9599 7.9933 8.0268 8.0602 8.0936 8.1271 8.1605 8.194 8.2274 8.2609 8.2943 8.3278 8.3612 8.3946 8.4281 8.4615 8.495 8.5284 8.5619 8.5953 8.6288 8.6622 8.6957 8.7291 8.7625 8.796 8.8294 8.8629 8.8963 8.9298 8.9632 8.9967 9.0301 9.0635 9.097 9.1304 9.1639 9.1973 9.2308 9.2642 9.2977 9.3311 9.3645 9.398 9.4314 9.4649 9.4983 9.5318 9.5652 9.5987 9.6321 9.6656 9.699 9.7324 9.7659 9.7993 9.8328 9.8662 9.8997 9.9331 9.9666 10"
